x,y,z,vx,vy,vz,temperature,density,pressure,is_star
0.05360,0.05360,0.05360,1.49242,1.49242,1.49242,0.86346,11789.25586,10184.67871,0
0.11587,0.11587,0.11587,0.26704,0.26704,0.26704,0.93121,11789.25586,10983.78223,0
0.21085,0.21085,0.21085,0.24595,0.24595,0.24595,0.94062,11789.25586,11094.81152,0
0.30801,0.30801,0.30801,0.18854,0.18854,0.18854,0.94597,11789.25586,11157.87305,0
0.40633,0.40633,0.40633,0.15130,0.15130,0.15130,0.94916,11789.25586,11195.50684,0
0.50522,0.50522,0.50522,0.12590,0.12590,0.12590,0.95127,11789.25586,11220.33691,0
0.60444,0.60444,0.60444,0.10765,0.10765,0.10765,0.95275,11789.25586,11237.89160,0
0.70386,0.70386,0.70386,0.09389,0.09389,0.09389,0.95386,11789.25586,11250.96973,0
0.80341,0.80341,0.80341,0.08321,0.08321,0.08321,0.95472,11789.25586,11261.04883,0
0.90306,0.90306,0.90306,0.07468,0.07468,0.07468,0.95540,11789.25586,11269.06738,0
1.00277,1.00277,1.00277,0.06770,0.06770,0.06770,0.95595,11789.25586,11275.59961,0
1.10253,1.10253,1.10253,0.06189,0.06189,0.06189,0.95641,11789.25586,11281.02344,0
1.20232,1.20232,1.20232,0.05697,0.05697,0.05697,0.95680,11789.25586,11285.59570,0
1.30215,1.30215,1.30215,0.05280,0.05280,0.05280,0.95713,11789.25586,11289.47754,0
1.40200,1.40200,1.40200,0.04917,0.04917,0.04917,0.95741,11789.25586,11292.85449,0
1.50187,1.50187,1.50187,0.04596,0.04596,0.04596,0.95767,11789.25586,11295.81543,0
1.60176,1.60176,1.60176,0.04320,0.04320,0.04320,0.95788,11789.25586,11298.37695,0
1.70166,1.70166,1.70166,0.04072,0.04072,0.04072,0.95808,11789.25586,11300.67773,0
1.80157,1.80157,1.80157,0.03851,0.03851,0.03851,0.95825,11789.25586,11302.72266,0
1.90148,1.90148,1.90148,0.03646,0.03646,0.03646,0.95841,11789.25586,11304.59863,0
2.00141,2.00141,2.00141,0.03472,0.03472,0.03472,0.95855,11789.25586,11306.23047,0
2.10135,2.10135,2.10135,0.03308,0.03308,0.03308,0.95868,11789.25586,11307.73633,0
2.20128,2.20128,2.20128,0.03157,0.03157,0.03157,0.95879,11789.25586,11309.12402,0
2.30123,2.30123,2.30123,0.03020,0.03020,0.03020,0.95890,11789.25586,11310.39258,0
2.40118,2.40118,2.40118,0.02895,0.02895,0.02895,0.95900,11789.25586,11311.54492,0
2.50113,2.50113,2.50113,0.02781,0.02781,0.02781,0.95909,11789.25586,11312.60449,0
2.60109,2.60109,2.60109,0.02672,0.02672,0.02672,0.95917,11789.25586,11313.60840,0
2.70105,2.70105,2.70105,0.02573,0.02573,0.02573,0.95925,11789.25586,11314.51465,0
2.80101,2.80101,2.80101,0.02479,0.02479,0.02479,0.95932,11789.25586,11315.37305,0
2.90097,2.90097,2.90097,0.02395,0.02395,0.02395,0.95939,11789.25586,11316.15625,0
3.00094,3.00094,3.00094,0.02313,0.02313,0.02313,0.95945,11789.25586,11316.90918,0
3.10091,3.10091,3.10091,0.02238,0.02238,0.02238,0.95951,11789.25586,11317.60449,0
3.20088,3.20088,3.20088,0.02168,0.02168,0.02168,0.95957,11789.25586,11318.24805,0
3.30085,3.30085,3.30085,0.02098,0.02098,0.02098,0.95962,11789.25586,11318.88281,0
3.40083,3.40083,3.40083,0.02039,0.02039,0.02039,0.95967,11789.25586,11319.43848,0
3.50080,3.50080,3.50080,0.01977,0.01977,0.01977,0.95972,11789.25586,11320.00391,0
3.60078,3.60078,3.60078,0.01925,0.01925,0.01925,0.95976,11789.25586,11320.50000,0
3.70076,3.70076,3.70076,0.01864,0.01864,0.01864,0.95980,11789.25586,11321.03418,0
3.80074,3.80074,3.80074,0.01820,0.01820,0.01820,0.95984,11789.25586,11321.45996,0
3.90072,3.90072,3.90072,0.01774,0.01774,0.01774,0.95988,11789.25586,11321.88574,0
4.00070,4.00070,4.00070,0.01723,0.01723,0.01723,0.95992,11789.25586,11322.34570,0
4.10068,4.10068,4.10068,0.01679,0.01679,0.01679,0.95995,11789.25586,11322.74316,0
4.20067,4.20067,4.20067,0.01642,0.01642,0.01642,0.95998,11789.25586,11323.09180,0
4.30065,4.30065,4.30065,0.01602,0.01602,0.01602,0.96001,11789.25586,11323.46582,0
4.40063,4.40063,4.40063,0.01562,0.01562,0.01562,0.96004,11789.25586,11323.82227,0
4.50062,4.50062,4.50062,0.01527,0.01527,0.01527,0.96007,11789.25586,11324.14355,0
4.60061,4.60061,4.60061,0.01492,0.01492,0.01492,0.96010,11789.25586,11324.47070,0
4.70059,4.70059,4.70059,0.01461,0.01461,0.01461,0.96012,11789.25586,11324.76562,0
4.80058,4.80058,4.80058,0.01427,0.01427,0.01427,0.96015,11789.25586,11325.06543,0
4.90057,4.90057,4.90057,0.01398,0.01398,0.01398,0.96017,11789.25586,11325.34375,0
5.00056,5.00056,5.00056,0.01368,0.01368,0.01368,0.96019,11789.25586,11325.60938,0
5.10054,5.10054,5.10054,0.01339,0.01339,0.01339,0.96021,11789.25586,11325.87402,0
5.20053,5.20053,5.20053,0.01313,0.01313,0.01313,0.96023,11789.25586,11326.11230,0
5.30052,5.30052,5.30052,0.01287,0.01287,0.01287,0.96026,11789.25586,11326.35547,0
5.40051,5.40051,5.40051,0.01265,0.01265,0.01265,0.96027,11789.25586,11326.57031,0
5.50050,5.50050,5.50050,0.01232,0.01232,0.01232,0.96030,11789.25586,11326.84668,0
5.60049,5.60049,5.60049,0.01215,0.01215,0.01215,0.96031,11789.25586,11327.02246,0
5.70049,5.70049,5.70049,0.01194,0.01194,0.01194,0.96033,11789.25586,11327.21387,0
5.80048,5.80048,5.80048,0.01171,0.01171,0.01171,0.96035,11789.25586,11327.42285,0
5.90047,5.90047,5.90047,0.01148,0.01148,0.01148,0.96036,11789.25586,11327.62988,0
6.00046,6.00046,6.00046,0.01129,0.01129,0.01129,0.96038,11789.25586,11327.81836,0
6.10045,6.10045,6.10045,0.01108,0.01108,0.01108,0.96039,11789.25586,11328.00195,0
6.20044,6.20044,6.20044,0.01093,0.01093,0.01093,0.96041,11789.25586,11328.14746,0
6.30043,6.30043,6.30043,0.01071,0.01071,0.01071,0.96042,11789.25586,11328.34082,0
6.40043,6.40043,6.40043,0.01051,0.01051,0.01051,0.96044,11789.25586,11328.51562,0
6.50042,6.50042,6.50042,0.01038,0.01038,0.01038,0.96045,11789.25586,11328.65332,0
6.60041,6.60041,6.60041,0.01020,0.01020,0.01020,0.96046,11789.25586,11328.81543,0
6.70041,6.70041,6.70041,0.01003,0.01003,0.01003,0.96048,11789.25586,11328.96777,0
6.80040,6.80040,6.80040,0.00988,0.00988,0.00988,0.96049,11789.25586,11329.10840,0
6.90039,6.90039,6.90039,0.00973,0.00973,0.00973,0.96050,11789.25586,11329.25391,0
7.00039,7.00039,7.00039,0.00957,0.00957,0.00957,0.96051,11789.25586,11329.39746,0
7.10038,7.10038,7.10038,0.00938,0.00938,0.00938,0.96053,11789.25586,11329.54980,0
7.20038,7.20038,7.20038,0.00932,0.00932,0.00932,0.96053,11789.25586,11329.63184,0
7.30037,7.30037,7.30037,0.00921,0.00921,0.00921,0.96054,11789.25586,11329.74316,0
7.40036,7.40036,7.40036,0.00895,0.00895,0.00895,0.96056,11789.25586,11329.94629,0
7.50036,7.50036,7.50036,0.00889,0.00889,0.00889,0.96057,11789.25586,11330.02441,0
7.60035,7.60035,7.60035,0.00873,0.00873,0.00873,0.96058,11789.25586,11330.15723,0
7.70035,7.70035,7.70035,0.00864,0.00864,0.00864,0.96059,11789.25586,11330.25098,0
7.80035,7.80035,7.80035,0.00852,0.00852,0.00852,0.96059,11789.25586,11330.36035,0
7.90034,7.90034,7.90034,0.00842,0.00842,0.00842,0.96060,11789.25586,11330.45996,0
8.00033,8.00033,8.00033,0.00822,0.00822,0.00822,0.96062,11789.25586,11330.61816,0
8.10033,8.10033,8.10033,0.00819,0.00819,0.00819,0.96062,11789.25586,11330.66895,0
8.20033,8.20033,8.20033,0.00805,0.00805,0.00805,0.96063,11789.25586,11330.79102,0
8.30032,8.30032,8.30032,0.00793,0.00793,0.00793,0.96064,11789.25586,11330.89355,0
8.40032,8.40032,8.40032,0.00790,0.00790,0.00790,0.96064,11789.25586,11330.94629,0
8.50031,8.50031,8.50031,0.00768,0.00768,0.00768,0.96066,11789.25586,11331.11133,0
8.60031,8.60031,8.60031,0.00769,0.00769,0.00769,0.96066,11789.25586,11331.13672,0
8.70030,8.70030,8.70030,0.00750,0.00750,0.00750,0.96067,11789.25586,11331.28418,0
8.80030,8.80030,8.80030,0.00746,0.00746,0.00746,0.96068,11789.25586,11331.33496,0
8.90030,8.90030,8.90030,0.00744,0.00744,0.00744,0.96068,11789.25586,11331.37012,0
9.00029,9.00029,9.00029,0.00718,0.00718,0.00718,0.96070,11789.25586,11331.56641,0
9.10029,9.10029,9.10029,0.00721,0.00721,0.00721,0.96070,11789.25586,11331.57520,0
9.20029,9.20029,9.20029,0.00707,0.00707,0.00707,0.96071,11789.25586,11331.69043,0
9.30028,9.30028,9.30028,0.00701,0.00701,0.00701,0.96071,11789.25586,11331.74902,0
9.40028,9.40028,9.40028,0.00694,0.00694,0.00694,0.96072,11789.25586,11331.81348,0
9.50028,9.50028,9.50028,0.00683,0.00683,0.00683,0.96073,11789.25586,11331.91406,0
9.60027,9.60027,9.60027,0.00676,0.00676,0.00676,0.96073,11789.25586,11331.97461,0
9.70027,9.70027,9.70027,0.00666,0.00666,0.00666,0.96074,11789.25586,11332.06250,0
9.80027,9.80027,9.80027,0.00661,0.00661,0.00661,0.96074,11789.25586,11332.11816,0
9.90027,9.90027,9.90027,0.00654,0.00654,0.00654,0.96075,11789.25586,11332.17773,0
10.00026,10.00026,10.00026,0.00645,0.00645,0.00645,0.96076,11789.25586,11332.26172,0
10.10026,10.10026,10.10026,0.00640,0.00640,0.00640,0.96076,11789.25586,11332.31152,0
10.20025,10.20025,10.20025,0.00627,0.00627,0.00627,0.96077,11789.25586,11332.41699,0
10.30025,10.30025,10.30025,0.00624,0.00624,0.00624,0.96077,11789.25586,11332.45508,0
10.40025,10.40025,10.40025,0.00622,0.00622,0.00622,0.96078,11789.25586,11332.48926,0
10.50025,10.50025,10.50025,0.00609,0.00609,0.00609,0.96078,11789.25586,11332.58887,0
10.60025,10.60025,10.60025,0.00607,0.00607,0.00607,0.96079,11789.25586,11332.61816,0
10.70024,10.70024,10.70024,0.00594,0.00594,0.00594,0.96080,11789.25586,11332.72559,0
10.80024,10.80024,10.80024,0.00591,0.00591,0.00591,0.96080,11789.25586,11332.76074,0
10.90024,10.90024,10.90024,0.00586,0.00586,0.00586,0.96080,11789.25586,11332.80371,0
11.00024,11.00024,11.00024,0.00581,0.00581,0.00581,0.96081,11789.25586,11332.86816,0
11.10023,11.10023,11.10023,0.00571,0.00571,0.00571,0.96081,11789.25586,11332.92969,0
11.20023,11.20023,11.20023,0.00565,0.00565,0.00565,0.96082,11789.25586,11332.99609,0
11.30023,11.30023,11.30023,0.00562,0.00562,0.00562,0.96082,11789.25586,11333.03125,0
11.40023,11.40023,11.40023,0.00557,0.00557,0.00557,0.96082,11789.25586,11333.07324,0
11.50022,11.50022,11.50022,0.00549,0.00549,0.00549,0.96083,11789.25586,11333.14355,0
11.60022,11.60022,11.60022,0.00546,0.00546,0.00546,0.96083,11789.25586,11333.17578,0
11.70022,11.70022,11.70022,0.00535,0.00535,0.00535,0.96084,11789.25586,11333.26074,0
11.80022,11.80022,11.80022,0.00534,0.00534,0.00534,0.96084,11789.25586,11333.28711,0
11.90022,11.90022,11.90022,0.00533,0.00533,0.00533,0.96084,11789.25586,11333.30371,0
12.00021,12.00021,12.00021,0.00519,0.00519,0.00519,0.96085,11789.25586,11333.40723,0
12.10021,12.10021,12.10021,0.00523,0.00523,0.00523,0.96085,11789.25586,11333.39551,0
12.20020,12.20020,12.20020,0.00508,0.00508,0.00508,0.96086,11789.25586,11333.51074,0
12.30020,12.30020,12.30020,0.00507,0.00507,0.00507,0.96086,11789.25586,11333.52148,0
12.40020,12.40020,12.40020,0.00508,0.00508,0.00508,0.96086,11789.25586,11333.53613,0
12.50020,12.50020,12.50020,0.00494,0.00494,0.00494,0.96087,11789.25586,11333.64258,0
12.60020,12.60020,12.60020,0.00496,0.00496,0.00496,0.96087,11789.25586,11333.63965,0
12.70020,12.70020,12.70020,0.00488,0.00488,0.00488,0.96088,11789.25586,11333.70605,0
12.80020,12.80020,12.80020,0.00484,0.00484,0.00484,0.96088,11789.25586,11333.74609,0
12.90020,12.90020,12.90020,0.00484,0.00484,0.00484,0.96088,11789.25586,11333.75391,0
13.00019,13.00019,13.00019,0.00474,0.00474,0.00474,0.96089,11789.25586,11333.83691,0
13.10019,13.10019,13.10019,0.00471,0.00471,0.00471,0.96089,11789.25586,11333.85059,0
13.20019,13.20019,13.20019,0.00466,0.00466,0.00466,0.96090,11789.25586,11333.91699,0
13.30019,13.30019,13.30019,0.00463,0.00463,0.00463,0.96090,11789.25586,11333.93750,0
13.40019,13.40019,13.40019,0.00465,0.00465,0.00465,0.96090,11789.25586,11333.93555,0
13.50018,13.50018,13.50018,0.00449,0.00449,0.00449,0.96091,11789.25586,11334.04883,0
13.60018,13.60018,13.60018,0.00453,0.00453,0.00453,0.96091,11789.25586,11334.03613,0
13.70018,13.70018,13.70018,0.00443,0.00443,0.00443,0.96091,11789.25586,11334.10840,0
13.80018,13.80018,13.80018,0.00443,0.00443,0.00443,0.96091,11789.25586,11334.12305,0
13.90018,13.90018,13.90018,0.00442,0.00442,0.00442,0.96091,11789.25586,11334.13477,0
14.00017,14.00017,14.00017,0.00431,0.00431,0.00431,0.96092,11789.25586,11334.21777,0
14.10017,14.10017,14.10017,0.00433,0.00433,0.00433,0.96092,11789.25586,11334.21191,0
14.20017,14.20017,14.20017,0.00425,0.00425,0.00425,0.96093,11789.25586,11334.28125,0
14.30017,14.30017,14.30017,0.00425,0.00425,0.00425,0.96093,11789.25586,11334.29102,0
14.40017,14.40017,14.40017,0.00422,0.00422,0.00422,0.96093,11789.25586,11334.31836,0
14.50017,14.50017,14.50017,0.00413,0.00413,0.00413,0.96094,11789.25586,11334.38086,0
14.60017,14.60017,14.60017,0.00416,0.00416,0.00416,0.96094,11789.25586,11334.37695,0
14.70016,14.70016,14.70016,0.00408,0.00408,0.00408,0.96094,11789.25586,11334.43945,0
14.80016,14.80016,14.80016,0.00405,0.00405,0.00405,0.96094,11789.25586,11334.46191,0
14.90016,14.90016,14.90016,0.00407,0.00407,0.00407,0.96094,11789.25586,11334.45996,0
15.00016,15.00016,15.00016,0.00395,0.00395,0.00395,0.96095,11789.25586,11334.54883,0
15.10016,15.10016,15.10016,0.00400,0.00400,0.00400,0.96095,11789.25586,11334.52930,0
15.20016,15.20016,15.20016,0.00389,0.00389,0.00389,0.96095,11789.25586,11334.60840,0
15.30016,15.30016,15.30016,0.00389,0.00389,0.00389,0.96096,11789.25586,11334.61426,0
15.40016,15.40016,15.40016,0.00389,0.00389,0.00389,0.96096,11789.25586,11334.62012,0
15.50016,15.50016,15.50016,0.00381,0.00381,0.00381,0.96096,11789.25586,11334.68457,0
15.60016,15.60016,15.60016,0.00384,0.00384,0.00384,0.96096,11789.25586,11334.67383,0
15.70015,15.70015,15.70015,0.00374,0.00374,0.00374,0.96097,11789.25586,11334.74805,0
15.80015,15.80015,15.80015,0.00375,0.00375,0.00375,0.96097,11789.25586,11334.74609,0
15.90015,15.90015,15.90015,0.00382,0.00382,0.00382,0.96096,11789.25586,11334.70703,0
16.00014,16.00014,16.00014,0.00357,0.00357,0.00357,0.96098,11789.25586,11334.88770,0
16.10015,16.10015,16.10015,0.00364,0.00364,0.00364,0.96097,11789.25586,11334.84570,0
16.20015,16.20015,16.20015,0.00363,0.00363,0.00363,0.96098,11789.25586,11334.86035,0
16.30015,16.30015,16.30015,0.00364,0.00364,0.00364,0.96098,11789.25586,11334.85547,0
16.40014,16.40014,16.40014,0.00352,0.00352,0.00352,0.96098,11789.25586,11334.94824,0
16.50014,16.50014,16.50014,0.00353,0.00353,0.00353,0.96098,11789.25586,11334.94434,0
16.60014,16.60014,16.60014,0.00352,0.00352,0.00352,0.96099,11789.25586,11334.96582,0
16.70014,16.70014,16.70014,0.00348,0.00348,0.00348,0.96099,11789.25586,11334.98730,0
16.80014,16.80014,16.80014,0.00354,0.00354,0.00354,0.96098,11789.25586,11334.96484,0
16.90014,16.90014,16.90014,0.00336,0.00336,0.00336,0.96100,11789.25586,11335.09082,0
17.00014,17.00014,17.00014,0.00339,0.00339,0.00339,0.96099,11789.25586,11335.07031,0
17.10014,17.10014,17.10014,0.00338,0.00338,0.00338,0.96100,11789.25586,11335.08789,0
17.20014,17.20014,17.20014,0.00336,0.00336,0.00336,0.96100,11789.25586,11335.10449,0
17.30014,17.30014,17.30014,0.00340,0.00340,0.00340,0.96100,11789.25586,11335.08691,0
17.40013,17.40013,17.40013,0.00323,0.00323,0.00323,0.96101,11789.25586,11335.20605,0
17.50013,17.50013,17.50013,0.00327,0.00327,0.00327,0.96100,11789.25586,11335.18555,0
17.60013,17.60013,17.60013,0.00325,0.00325,0.00325,0.96101,11789.25586,11335.20312,0
17.70013,17.70013,17.70013,0.00323,0.00323,0.00323,0.96101,11789.25586,11335.21875,0
17.80013,17.80013,17.80013,0.00328,0.00328,0.00328,0.96100,11789.25586,11335.19824,0
17.90012,17.90012,17.90012,0.00311,0.00311,0.00311,0.96101,11789.25586,11335.31543,0
18.00012,18.00012,18.00012,0.00315,0.00315,0.00315,0.96101,11789.25586,11335.29785,0
18.10012,18.10012,18.10012,0.00313,0.00313,0.00313,0.96101,11789.25586,11335.31348,0
18.20012,18.20012,18.20012,0.00311,0.00311,0.00311,0.96102,11789.25586,11335.32715,0
18.30012,18.30012,18.30012,0.00315,0.00315,0.00315,0.96101,11789.25586,11335.30957,0
18.40011,18.40011,18.40011,0.00300,0.00300,0.00300,0.96102,11789.25586,11335.42188,0
18.50011,18.50011,18.50011,0.00303,0.00303,0.00303,0.96102,11789.25586,11335.40430,0
18.60011,18.60011,18.60011,0.00302,0.00302,0.00302,0.96102,11789.25586,11335.41797,0
18.70011,18.70011,18.70011,0.00300,0.00300,0.00300,0.96102,11789.25586,11335.43164,0
18.80012,18.80012,18.80012,0.00304,0.00304,0.00304,0.96102,11789.25586,11335.41406,0
18.90011,18.90011,18.90011,0.00289,0.00289,0.00289,0.96103,11789.25586,11335.52246,0
19.00011,19.00011,19.00011,0.00292,0.00292,0.00292,0.96103,11789.25586,11335.50391,0
19.10011,19.10011,19.10011,0.00291,0.00291,0.00291,0.96103,11789.25586,11335.51660,0
19.20011,19.20011,19.20011,0.00290,0.00290,0.00290,0.96103,11789.25586,11335.53125,0
19.30011,19.30011,19.30011,0.00292,0.00292,0.00292,0.96103,11789.25586,11335.51172,0
19.40010,19.40010,19.40010,0.00277,0.00277,0.00277,0.96104,11789.25586,11335.62988,0
19.50010,19.50010,19.50010,0.00287,0.00287,0.00287,0.96104,11789.25586,11335.57324,0
19.60010,19.60010,19.60010,0.00279,0.00279,0.00279,0.96104,11789.25586,11335.62207,0
19.70010,19.70010,19.70010,0.00279,0.00279,0.00279,0.96104,11789.25586,11335.62598,0
19.80010,19.80010,19.80010,0.00282,0.00282,0.00282,0.96104,11789.25586,11335.60645,0
19.90010,19.90010,19.90010,0.00268,0.00268,0.00268,0.96105,11789.25586,11335.72461,0
20.00010,20.00010,20.00010,0.00277,0.00277,0.00277,0.96104,11789.25586,11335.66504,0
20.10010,20.10010,20.10010,0.00269,0.00269,0.00269,0.96105,11789.25586,11335.70996,0
20.20010,20.20010,20.20010,0.00269,0.00269,0.00269,0.96105,11789.25586,11335.71484,0
20.30010,20.30010,20.30010,0.00271,0.00271,0.00271,0.96105,11789.25586,11335.70703,0
20.40010,20.40010,20.40010,0.00262,0.00262,0.00262,0.96105,11789.25586,11335.78027,0
20.50010,20.50010,20.50010,0.00265,0.00265,0.00265,0.96105,11789.25586,11335.76074,0
20.60010,20.60010,20.60010,0.00260,0.00260,0.00260,0.96106,11789.25586,11335.79980,0
20.70010,20.70010,20.70010,0.00260,0.00260,0.00260,0.96106,11789.25586,11335.80176,0
20.80010,20.80010,20.80010,0.00263,0.00263,0.00263,0.96105,11789.25586,11335.78027,0
20.90009,20.90009,20.90009,0.00249,0.00249,0.00249,0.96106,11789.25586,11335.88477,0
21.00010,21.00010,21.00010,0.00258,0.00258,0.00258,0.96106,11789.25586,11335.83984,0
21.10010,21.10010,21.10010,0.00251,0.00251,0.00251,0.96106,11789.25586,11335.87695,0
21.20010,21.20010,21.20010,0.00251,0.00251,0.00251,0.96106,11789.25586,11335.87695,0
21.30010,21.30010,21.30010,0.00254,0.00254,0.00254,0.96106,11789.25586,11335.87012,0
21.40009,21.40009,21.40009,0.00240,0.00240,0.00240,0.96107,11789.25586,11335.97266,0
21.50010,21.50010,21.50010,0.00249,0.00249,0.00249,0.96107,11789.25586,11335.91406,0
21.60009,21.60009,21.60009,0.00242,0.00242,0.00242,0.96107,11789.25586,11335.96387,0
21.70009,21.70009,21.70009,0.00243,0.00243,0.00243,0.96107,11789.25586,11335.96289,0
21.80009,21.80009,21.80009,0.00246,0.00246,0.00246,0.96107,11789.25586,11335.93555,0
21.90009,21.90009,21.90009,0.00232,0.00232,0.00232,0.96108,11789.25586,11336.05273,0
22.00009,22.00009,22.00009,0.00241,0.00241,0.00241,0.96107,11789.25586,11335.98730,0
22.10009,22.10009,22.10009,0.00234,0.00234,0.00234,0.96108,11789.25586,11336.04102,0
22.20009,22.20009,22.20009,0.00235,0.00235,0.00235,0.96108,11789.25586,11336.03906,0
22.30009,22.30009,22.30009,0.00238,0.00238,0.00238,0.96107,11789.25586,11336.02051,0
22.40009,22.40009,22.40009,0.00226,0.00226,0.00226,0.96108,11789.25586,11336.10742,0
22.50009,22.50009,22.50009,0.00229,0.00229,0.00229,0.96108,11789.25586,11336.08594,0
22.60009,22.60009,22.60009,0.00228,0.00228,0.00228,0.96108,11789.25586,11336.09375,0
22.70009,22.70009,22.70009,0.00227,0.00227,0.00227,0.96108,11789.25586,11336.10254,0
22.80009,22.80009,22.80009,0.00230,0.00230,0.00230,0.96108,11789.25586,11336.08203,0
22.90009,22.90009,22.90009,0.00218,0.00218,0.00218,0.96109,11789.25586,11336.17773,0
23.00009,23.00009,23.00009,0.00221,0.00221,0.00221,0.96109,11789.25586,11336.15723,0
23.10009,23.10009,23.10009,0.00220,0.00220,0.00220,0.96109,11789.25586,11336.16406,0
23.20009,23.20009,23.20009,0.00220,0.00220,0.00220,0.96109,11789.25586,11336.17285,0
23.30009,23.30009,23.30009,0.00223,0.00223,0.00223,0.96109,11789.25586,11336.15137,0
23.40009,23.40009,23.40009,0.00211,0.00211,0.00211,0.96109,11789.25586,11336.24609,0
23.50009,23.50009,23.50009,0.00214,0.00214,0.00214,0.96109,11789.25586,11336.22656,0
23.60009,23.60009,23.60009,0.00213,0.00213,0.00213,0.96109,11789.25586,11336.23340,0
23.70009,23.70009,23.70009,0.00213,0.00213,0.00213,0.96109,11789.25586,11336.23926,0
