x,y,z,vx,vy,vz,temperature,density,pressure,is_star
0.03994,0.03994,0.03994,1.22093,1.22093,1.22093,0.89186,11789.25586,10519.64453,0
0.11299,0.11299,0.11299,0.30339,0.30339,0.30339,0.94130,11789.25586,11102.79492,0
0.20847,0.20847,0.20847,0.22528,0.22528,0.22528,0.94984,11789.25586,11203.49414,0
0.30621,0.30621,0.30621,0.16934,0.16934,0.16934,0.95415,11789.25586,11254.32227,0
0.40489,0.40489,0.40489,0.13482,0.13482,0.13482,0.95667,11789.25586,11284.12305,0
0.50403,0.50403,0.50403,0.11173,0.11173,0.11173,0.95833,11789.25586,11303.62793,0
0.60342,0.60342,0.60342,0.09528,0.09528,0.09528,0.95949,11789.25586,11317.35352,0
0.70297,0.70297,0.70297,0.08296,0.08296,0.08296,0.96036,11789.25586,11327.54785,0
0.80262,0.80262,0.80262,0.07343,0.07343,0.07343,0.96102,11789.25586,11335.38965,0
0.90235,0.90235,0.90235,0.06584,0.06584,0.06584,0.96155,11789.25586,11341.61621,0
1.00213,1.00213,1.00213,0.05965,0.05965,0.05965,0.96198,11789.25586,11346.68750,0
1.10194,1.10194,1.10194,0.05450,0.05450,0.05450,0.96233,11789.25586,11350.88867,0
1.20178,1.20178,1.20178,0.05015,0.05015,0.05015,0.96264,11789.25586,11354.43164,0
1.30165,1.30165,1.30165,0.04646,0.04646,0.04646,0.96289,11789.25586,11357.43652,0
1.40154,1.40154,1.40154,0.04325,0.04325,0.04325,0.96311,11789.25586,11360.05176,0
1.50144,1.50144,1.50144,0.04042,0.04042,0.04042,0.96331,11789.25586,11362.33789,0
1.60135,1.60135,1.60135,0.03799,0.03799,0.03799,0.96347,11789.25586,11364.32227,0
1.70127,1.70127,1.70127,0.03580,0.03580,0.03580,0.96362,11789.25586,11366.10059,0
1.80120,1.80120,1.80120,0.03385,0.03385,0.03385,0.96376,11789.25586,11367.67969,0
1.90114,1.90114,1.90114,0.03205,0.03205,0.03205,0.96388,11789.25586,11369.12500,0
2.00108,2.00108,2.00108,0.03051,0.03051,0.03051,0.96399,11789.25586,11370.39160,0
2.10103,2.10103,2.10103,0.02907,0.02907,0.02907,0.96409,11789.25586,11371.55176,0
2.20098,2.20098,2.20098,0.02774,0.02774,0.02774,0.96418,11789.25586,11372.62402,0
2.30094,2.30094,2.30094,0.02654,0.02654,0.02654,0.96426,11789.25586,11373.60352,0
2.40090,2.40090,2.40090,0.02544,0.02544,0.02544,0.96434,11789.25586,11374.49219,0
2.50087,2.50087,2.50087,0.02443,0.02443,0.02443,0.96441,11789.25586,11375.31152,0
2.60083,2.60083,2.60083,0.02347,0.02347,0.02347,0.96447,11789.25586,11376.08496,0
2.70080,2.70080,2.70080,0.02260,0.02260,0.02260,0.96453,11789.25586,11376.78516,0
2.80077,2.80077,2.80077,0.02178,0.02178,0.02178,0.96459,11789.25586,11377.44629,0
2.90075,2.90075,2.90075,0.02104,0.02104,0.02104,0.96464,11789.25586,11378.05078,0
3.00072,3.00072,3.00072,0.02032,0.02032,0.02032,0.96469,11789.25586,11378.63281,0
3.10070,3.10070,3.10070,0.01965,0.01965,0.01965,0.96473,11789.25586,11379.16992,0
3.20068,3.20068,3.20068,0.01904,0.01904,0.01904,0.96477,11789.25586,11379.66699,0
3.30065,3.30065,3.30065,0.01843,0.01843,0.01843,0.96482,11789.25586,11380.15430,0
3.40063,3.40063,3.40063,0.01790,0.01790,0.01790,0.96485,11789.25586,11380.58398,0
3.50062,3.50062,3.50062,0.01736,0.01736,0.01736,0.96489,11789.25586,11381.01855,0
3.60060,3.60060,3.60060,0.01690,0.01690,0.01690,0.96492,11789.25586,11381.40527,0
3.70058,3.70058,3.70058,0.01638,0.01638,0.01638,0.96496,11789.25586,11381.81055,0
3.80057,3.80057,3.80057,0.01598,0.01598,0.01598,0.96498,11789.25586,11382.14453,0
3.90055,3.90055,3.90055,0.01557,0.01557,0.01557,0.96501,11789.25586,11382.47363,0
4.00054,4.00054,4.00054,0.01513,0.01513,0.01513,0.96504,11789.25586,11382.82617,0
4.10052,4.10052,4.10052,0.01474,0.01474,0.01474,0.96507,11789.25586,11383.13184,0
4.20051,4.20051,4.20051,0.01441,0.01441,0.01441,0.96509,11789.25586,11383.40234,0
4.30050,4.30050,4.30050,0.01406,0.01406,0.01406,0.96512,11789.25586,11383.69141,0
4.40049,4.40049,4.40049,0.01372,0.01372,0.01372,0.96514,11789.25586,11383.96582,0
4.50048,4.50048,4.50048,0.01341,0.01341,0.01341,0.96516,11789.25586,11384.21289,0
4.60046,4.60046,4.60046,0.01310,0.01310,0.01310,0.96518,11789.25586,11384.46484,0
4.70046,4.70046,4.70046,0.01282,0.01282,0.01282,0.96520,11789.25586,11384.69531,0
4.80044,4.80044,4.80044,0.01253,0.01253,0.01253,0.96522,11789.25586,11384.92285,0
4.90044,4.90044,4.90044,0.01227,0.01227,0.01227,0.96524,11789.25586,11385.13965,0
5.00043,5.00043,5.00043,0.01201,0.01201,0.01201,0.96526,11789.25586,11385.34277,0
5.10042,5.10042,5.10042,0.01176,0.01176,0.01176,0.96527,11789.25586,11385.54785,0
5.20041,5.20041,5.20041,0.01153,0.01153,0.01153,0.96529,11789.25586,11385.73047,0
5.30040,5.30040,5.30040,0.01130,0.01130,0.01130,0.96530,11789.25586,11385.91797,0
5.40039,5.40039,5.40039,0.01110,0.01110,0.01110,0.96532,11789.25586,11386.08594,0
5.50038,5.50038,5.50038,0.01082,0.01082,0.01082,0.96534,11789.25586,11386.29297,0
5.60038,5.60038,5.60038,0.01067,0.01067,0.01067,0.96535,11789.25586,11386.43359,0
5.70037,5.70037,5.70037,0.01048,0.01048,0.01048,0.96536,11789.25586,11386.58008,0
5.80036,5.80036,5.80036,0.01028,0.01028,0.01028,0.96537,11789.25586,11386.74219,0
5.90036,5.90036,5.90036,0.01008,0.01008,0.01008,0.96539,11789.25586,11386.90039,0
6.00035,6.00035,6.00035,0.00991,0.00991,0.00991,0.96540,11789.25586,11387.04785,0
6.10034,6.10034,6.10034,0.00973,0.00973,0.00973,0.96541,11789.25586,11387.18652,0
6.20034,6.20034,6.20034,0.00959,0.00959,0.00959,0.96542,11789.25586,11387.30273,0
6.30033,6.30033,6.30033,0.00940,0.00940,0.00940,0.96543,11789.25586,11387.44824,0
6.40033,6.40033,6.40033,0.00923,0.00923,0.00923,0.96545,11789.25586,11387.58496,0
6.50032,6.50032,6.50032,0.00911,0.00911,0.00911,0.96546,11789.25586,11387.69043,0
6.60032,6.60032,6.60032,0.00895,0.00895,0.00895,0.96547,11789.25586,11387.81543,0
6.70031,6.70031,6.70031,0.00880,0.00880,0.00880,0.96548,11789.25586,11387.93164,0
6.80031,6.80031,6.80031,0.00867,0.00867,0.00867,0.96548,11789.25586,11388.04102,0
6.90030,6.90030,6.90030,0.00854,0.00854,0.00854,0.96549,11789.25586,11388.15527,0
7.00030,7.00030,7.00030,0.00840,0.00840,0.00840,0.96550,11789.25586,11388.26465,0
7.10029,7.10029,7.10029,0.00824,0.00824,0.00824,0.96551,11789.25586,11388.37891,0
7.20029,7.20029,7.20029,0.00818,0.00818,0.00818,0.96552,11789.25586,11388.44629,0
7.30029,7.30029,7.30029,0.00808,0.00808,0.00808,0.96553,11789.25586,11388.53418,0
7.40028,7.40028,7.40028,0.00786,0.00786,0.00786,0.96554,11789.25586,11388.68359,0
7.50028,7.50028,7.50028,0.00780,0.00780,0.00780,0.96554,11789.25586,11388.74902,0
7.60027,7.60027,7.60027,0.00767,0.00767,0.00767,0.96555,11789.25586,11388.84961,0
7.70027,7.70027,7.70027,0.00759,0.00759,0.00759,0.96556,11789.25586,11388.92285,0
7.80026,7.80026,7.80026,0.00748,0.00748,0.00748,0.96557,11789.25586,11389.00684,0
7.90026,7.90026,7.90026,0.00739,0.00739,0.00739,0.96557,11789.25586,11389.08496,0
8.00025,8.00025,8.00025,0.00722,0.00722,0.00722,0.96558,11789.25586,11389.20117,0
8.10025,8.10025,8.10025,0.00719,0.00719,0.00719,0.96559,11789.25586,11389.24609,0
8.20025,8.20025,8.20025,0.00707,0.00707,0.00707,0.96559,11789.25586,11389.33887,0
8.30025,8.30025,8.30025,0.00696,0.00696,0.00696,0.96560,11789.25586,11389.41504,0
8.40025,8.40025,8.40025,0.00693,0.00693,0.00693,0.96561,11789.25586,11389.46094,0
8.50024,8.50024,8.50024,0.00675,0.00675,0.00675,0.96562,11789.25586,11389.58105,0
8.60024,8.60024,8.60024,0.00674,0.00674,0.00674,0.96562,11789.25586,11389.60742,0
8.70023,8.70023,8.70023,0.00659,0.00659,0.00659,0.96563,11789.25586,11389.71484,0
8.80023,8.80023,8.80023,0.00655,0.00655,0.00655,0.96563,11789.25586,11389.75684,0
8.90023,8.90023,8.90023,0.00653,0.00653,0.00653,0.96563,11789.25586,11389.78906,0
9.00022,9.00022,9.00022,0.00631,0.00631,0.00631,0.96565,11789.25586,11389.93164,0
9.10022,9.10022,9.10022,0.00632,0.00632,0.00632,0.96565,11789.25586,11389.94531,0
9.20022,9.20022,9.20022,0.00621,0.00621,0.00621,0.96565,11789.25586,11390.03223,0
9.30022,9.30022,9.30022,0.00615,0.00615,0.00615,0.96566,11789.25586,11390.07715,0
9.40021,9.40021,9.40021,0.00609,0.00609,0.00609,0.96566,11789.25586,11390.12598,0
9.50021,9.50021,9.50021,0.00600,0.00600,0.00600,0.96567,11789.25586,11390.20508,0
9.60021,9.60021,9.60021,0.00593,0.00593,0.00593,0.96567,11789.25586,11390.24902,0
9.70021,9.70021,9.70021,0.00585,0.00585,0.00585,0.96568,11789.25586,11390.31836,0
9.80021,9.80021,9.80021,0.00580,0.00580,0.00580,0.96568,11789.25586,11390.36035,0
9.90020,9.90020,9.90020,0.00574,0.00574,0.00574,0.96569,11789.25586,11390.40625,0
10.00020,10.00020,10.00020,0.00566,0.00566,0.00566,0.96569,11789.25586,11390.47266,0
10.10020,10.10020,10.10020,0.00562,0.00562,0.00562,0.96569,11789.25586,11390.51172,0
10.20019,10.20019,10.20019,0.00551,0.00551,0.00551,0.96570,11789.25586,11390.58887,0
10.30019,10.30019,10.30019,0.00548,0.00548,0.00548,0.96570,11789.25586,11390.62109,0
10.40019,10.40019,10.40019,0.00545,0.00545,0.00545,0.96571,11789.25586,11390.64941,0
10.50019,10.50019,10.50019,0.00535,0.00535,0.00535,0.96571,11789.25586,11390.72266,0
10.60019,10.60019,10.60019,0.00532,0.00532,0.00532,0.96571,11789.25586,11390.74707,0
10.70018,10.70018,10.70018,0.00522,0.00522,0.00522,0.96572,11789.25586,11390.82812,0
10.80018,10.80018,10.80018,0.00519,0.00519,0.00519,0.96572,11789.25586,11390.85742,0
10.90018,10.90018,10.90018,0.00514,0.00514,0.00514,0.96573,11789.25586,11390.88867,0
11.00018,11.00018,11.00018,0.00509,0.00509,0.00509,0.96573,11789.25586,11390.94141,0
11.10018,11.10018,11.10018,0.00502,0.00502,0.00502,0.96573,11789.25586,11390.98438,0
11.20018,11.20018,11.20018,0.00496,0.00496,0.00496,0.96574,11789.25586,11391.03809,0
11.30017,11.30017,11.30017,0.00493,0.00493,0.00493,0.96574,11789.25586,11391.06543,0
11.40017,11.40017,11.40017,0.00489,0.00489,0.00489,0.96574,11789.25586,11391.09863,0
11.50017,11.50017,11.50017,0.00482,0.00482,0.00482,0.96575,11789.25586,11391.15234,0
11.60017,11.60017,11.60017,0.00479,0.00479,0.00479,0.96575,11789.25586,11391.17773,0
11.70017,11.70017,11.70017,0.00470,0.00470,0.00470,0.96576,11789.25586,11391.24219,0
11.80017,11.80017,11.80017,0.00469,0.00469,0.00469,0.96576,11789.25586,11391.26172,0
11.90017,11.90017,11.90017,0.00467,0.00467,0.00467,0.96576,11789.25586,11391.27832,0
12.00016,12.00016,12.00016,0.00456,0.00456,0.00456,0.96577,11789.25586,11391.35352,0
12.10016,12.10016,12.10016,0.00458,0.00458,0.00458,0.96577,11789.25586,11391.34863,0
12.20016,12.20016,12.20016,0.00447,0.00447,0.00447,0.96577,11789.25586,11391.43359,0
12.30016,12.30016,12.30016,0.00445,0.00445,0.00445,0.96577,11789.25586,11391.44043,0
12.40016,12.40016,12.40016,0.00445,0.00445,0.00445,0.96577,11789.25586,11391.45508,0
12.50015,12.50015,12.50015,0.00434,0.00434,0.00434,0.96578,11789.25586,11391.53418,0
12.60015,12.60015,12.60015,0.00435,0.00435,0.00435,0.96578,11789.25586,11391.53516,0
12.70015,12.70015,12.70015,0.00428,0.00428,0.00428,0.96579,11789.25586,11391.58496,0
12.80015,12.80015,12.80015,0.00425,0.00425,0.00425,0.96579,11789.25586,11391.61621,0
12.90015,12.90015,12.90015,0.00424,0.00424,0.00424,0.96579,11789.25586,11391.62402,0
13.00015,13.00015,13.00015,0.00416,0.00416,0.00416,0.96579,11789.25586,11391.68555,0
13.10015,13.10015,13.10015,0.00414,0.00414,0.00414,0.96579,11789.25586,11391.69434,0
13.20014,13.20014,13.20014,0.00409,0.00409,0.00409,0.96580,11789.25586,11391.74902,0
13.30014,13.30014,13.30014,0.00406,0.00406,0.00406,0.96580,11789.25586,11391.76270,0
13.40014,13.40014,13.40014,0.00407,0.00407,0.00407,0.96580,11789.25586,11391.76465,0
13.50014,13.50014,13.50014,0.00395,0.00395,0.00395,0.96581,11789.25586,11391.84668,0
13.60014,13.60014,13.60014,0.00397,0.00397,0.00397,0.96581,11789.25586,11391.84082,0
13.70014,13.70014,13.70014,0.00390,0.00390,0.00390,0.96581,11789.25586,11391.89453,0
13.80014,13.80014,13.80014,0.00389,0.00389,0.00389,0.96581,11789.25586,11391.90723,0
13.90014,13.90014,13.90014,0.00388,0.00388,0.00388,0.96581,11789.25586,11391.91699,0
14.00013,14.00013,14.00013,0.00379,0.00379,0.00379,0.96582,11789.25586,11391.97754,0
14.10013,14.10013,14.10013,0.00380,0.00380,0.00380,0.96582,11789.25586,11391.97559,0
14.20013,14.20013,14.20013,0.00373,0.00373,0.00373,0.96582,11789.25586,11392.02734,0
14.30013,14.30013,14.30013,0.00373,0.00373,0.00373,0.96582,11789.25586,11392.03711,0
14.40013,14.40013,14.40013,0.00370,0.00370,0.00370,0.96583,11789.25586,11392.05762,0
14.50013,14.50013,14.50013,0.00363,0.00363,0.00363,0.96583,11789.25586,11392.10352,0
14.60013,14.60013,14.60013,0.00365,0.00365,0.00365,0.96583,11789.25586,11392.10449,0
14.70013,14.70013,14.70013,0.00358,0.00358,0.00358,0.96583,11789.25586,11392.14941,0
14.80013,14.80013,14.80013,0.00356,0.00356,0.00356,0.96583,11789.25586,11392.16699,0
14.90013,14.90013,14.90013,0.00357,0.00357,0.00357,0.96583,11789.25586,11392.16699,0
15.00012,15.00012,15.00012,0.00348,0.00348,0.00348,0.96584,11789.25586,11392.23242,0
15.10012,15.10012,15.10012,0.00350,0.00350,0.00350,0.96584,11789.25586,11392.22070,0
15.20012,15.20012,15.20012,0.00342,0.00342,0.00342,0.96584,11789.25586,11392.27930,0
15.30012,15.30012,15.30012,0.00342,0.00342,0.00342,0.96584,11789.25586,11392.28516,0
15.40012,15.40012,15.40012,0.00341,0.00341,0.00341,0.96585,11789.25586,11392.29102,0
15.50012,15.50012,15.50012,0.00335,0.00335,0.00335,0.96585,11789.25586,11392.33984,0
15.60012,15.60012,15.60012,0.00336,0.00336,0.00336,0.96585,11789.25586,11392.33301,0
15.70011,15.70011,15.70011,0.00329,0.00329,0.00329,0.96585,11789.25586,11392.38574,0
15.80011,15.80011,15.80011,0.00329,0.00329,0.00329,0.96585,11789.25586,11392.38672,0
15.90012,15.90012,15.90012,0.00334,0.00334,0.00334,0.96585,11789.25586,11392.36035,0
16.00011,16.00011,16.00011,0.00314,0.00314,0.00314,0.96586,11789.25586,11392.49023,0
16.10011,16.10011,16.10011,0.00320,0.00320,0.00320,0.96586,11789.25586,11392.46484,0
16.20011,16.20011,16.20011,0.00318,0.00318,0.00318,0.96586,11789.25586,11392.47461,0
16.30011,16.30011,16.30011,0.00319,0.00319,0.00319,0.96586,11789.25586,11392.47266,0
16.40010,16.40010,16.40010,0.00309,0.00309,0.00309,0.96587,11789.25586,11392.54102,0
16.50010,16.50010,16.50010,0.00310,0.00310,0.00310,0.96587,11789.25586,11392.53809,0
16.60011,16.60011,16.60011,0.00308,0.00308,0.00308,0.96587,11789.25586,11392.55859,0
16.70010,16.70010,16.70010,0.00306,0.00306,0.00306,0.96587,11789.25586,11392.57227,0
16.80011,16.80011,16.80011,0.00309,0.00309,0.00309,0.96587,11789.25586,11392.56055,0
16.90010,16.90010,16.90010,0.00296,0.00296,0.00296,0.96588,11789.25586,11392.64844,0
17.00010,17.00010,17.00010,0.00298,0.00298,0.00298,0.96587,11789.25586,11392.63574,0
17.10010,17.10010,17.10010,0.00296,0.00296,0.00296,0.96588,11789.25586,11392.65039,0
17.20010,17.20010,17.20010,0.00295,0.00295,0.00295,0.96588,11789.25586,11392.66309,0
17.30010,17.30010,17.30010,0.00297,0.00297,0.00297,0.96588,11789.25586,11392.65137,0
17.40009,17.40009,17.40009,0.00285,0.00285,0.00285,0.96588,11789.25586,11392.73828,0
17.50009,17.50009,17.50009,0.00287,0.00287,0.00287,0.96588,11789.25586,11392.72559,0
17.60009,17.60009,17.60009,0.00285,0.00285,0.00285,0.96588,11789.25586,11392.73828,0
17.70009,17.70009,17.70009,0.00284,0.00284,0.00284,0.96588,11789.25586,11392.75098,0
17.80009,17.80009,17.80009,0.00286,0.00286,0.00286,0.96588,11789.25586,11392.73730,0
17.90009,17.90009,17.90009,0.00274,0.00274,0.00274,0.96589,11789.25586,11392.82227,0
18.00009,18.00009,18.00009,0.00276,0.00276,0.00276,0.96589,11789.25586,11392.81152,0
18.10009,18.10009,18.10009,0.00275,0.00275,0.00275,0.96589,11789.25586,11392.82422,0
18.20009,18.20009,18.20009,0.00274,0.00274,0.00274,0.96589,11789.25586,11392.83398,0
18.30009,18.30009,18.30009,0.00276,0.00276,0.00276,0.96589,11789.25586,11392.82422,0
18.40009,18.40009,18.40009,0.00264,0.00264,0.00264,0.96590,11789.25586,11392.90625,0
18.50009,18.50009,18.50009,0.00266,0.00266,0.00266,0.96590,11789.25586,11392.89453,0
18.60009,18.60009,18.60009,0.00265,0.00265,0.00265,0.96590,11789.25586,11392.90430,0
18.70009,18.70009,18.70009,0.00264,0.00264,0.00264,0.96590,11789.25586,11392.91602,0
18.80009,18.80009,18.80009,0.00266,0.00266,0.00266,0.96590,11789.25586,11392.90332,0
18.90008,18.90008,18.90008,0.00254,0.00254,0.00254,0.96590,11789.25586,11392.98242,0
19.00008,19.00008,19.00008,0.00257,0.00257,0.00257,0.96590,11789.25586,11392.96973,0
19.10008,19.10008,19.10008,0.00255,0.00255,0.00255,0.96590,11789.25586,11392.98047,0
19.20008,19.20008,19.20008,0.00254,0.00254,0.00254,0.96590,11789.25586,11392.99219,0
19.30009,19.30009,19.30009,0.00256,0.00256,0.00256,0.96590,11789.25586,11392.97754,0
19.40008,19.40008,19.40008,0.00244,0.00244,0.00244,0.96591,11789.25586,11393.06445,0
19.50008,19.50008,19.50008,0.00251,0.00251,0.00251,0.96591,11789.25586,11393.02734,0
19.60008,19.60008,19.60008,0.00245,0.00245,0.00245,0.96591,11789.25586,11393.06152,0
19.70008,19.70008,19.70008,0.00245,0.00245,0.00245,0.96591,11789.25586,11393.06543,0
19.80008,19.80008,19.80008,0.00247,0.00247,0.00247,0.96591,11789.25586,11393.05176,0
19.90008,19.90008,19.90008,0.00235,0.00235,0.00235,0.96592,11789.25586,11393.13672,0
20.00008,20.00008,20.00008,0.00242,0.00242,0.00242,0.96591,11789.25586,11393.09766,0
20.10008,20.10008,20.10008,0.00236,0.00236,0.00236,0.96592,11789.25586,11393.12988,0
20.20008,20.20008,20.20008,0.00236,0.00236,0.00236,0.96592,11789.25586,11393.13379,0
20.30008,20.30008,20.30008,0.00238,0.00238,0.00238,0.96592,11789.25586,11393.12695,0
20.40008,20.40008,20.40008,0.00230,0.00230,0.00230,0.96592,11789.25586,11393.18555,0
20.50008,20.50008,20.50008,0.00233,0.00233,0.00233,0.96592,11789.25586,11393.17285,0
20.60008,20.60008,20.60008,0.00228,0.00228,0.00228,0.96592,11789.25586,11393.19727,0
20.70008,20.70008,20.70008,0.00228,0.00228,0.00228,0.96592,11789.25586,11393.20020,0
20.80008,20.80008,20.80008,0.00231,0.00231,0.00231,0.96592,11789.25586,11393.18555,0
20.90008,20.90008,20.90008,0.00219,0.00219,0.00219,0.96593,11789.25586,11393.26270,0
21.00008,21.00008,21.00008,0.00226,0.00226,0.00226,0.96592,11789.25586,11393.23242,0
21.10008,21.10008,21.10008,0.00220,0.00220,0.00220,0.96593,11789.25586,11393.25488,0
21.20008,21.20008,21.20008,0.00221,0.00221,0.00221,0.96593,11789.25586,11393.25781,0
21.30008,21.30008,21.30008,0.00223,0.00223,0.00223,0.96593,11789.25586,11393.25488,0
21.40007,21.40007,21.40007,0.00211,0.00211,0.00211,0.96593,11789.25586,11393.33105,0
21.50008,21.50008,21.50008,0.00218,0.00218,0.00218,0.96593,11789.25586,11393.29102,0
21.60007,21.60007,21.60007,0.00213,0.00213,0.00213,0.96593,11789.25586,11393.32617,0
21.70008,21.70008,21.70008,0.00213,0.00213,0.00213,0.96593,11789.25586,11393.32617,0
21.80008,21.80008,21.80008,0.00216,0.00216,0.00216,0.96593,11789.25586,11393.30566,0
21.90007,21.90007,21.90007,0.00204,0.00204,0.00204,0.96594,11789.25586,11393.39258,0
22.00007,22.00007,22.00007,0.00211,0.00211,0.00211,0.96593,11789.25586,11393.34473,0
22.10007,22.10007,22.10007,0.00206,0.00206,0.00206,0.96594,11789.25586,11393.38574,0
22.20007,22.20007,22.20007,0.00206,0.00206,0.00206,0.96594,11789.25586,11393.38477,0
22.30007,22.30007,22.30007,0.00209,0.00209,0.00209,0.96594,11789.25586,11393.37305,0
22.40007,22.40007,22.40007,0.00198,0.00198,0.00198,0.96594,11789.25586,11393.43359,0
22.50007,22.50007,22.50007,0.00201,0.00201,0.00201,0.96594,11789.25586,11393.41895,0
22.60007,22.60007,22.60007,0.00200,0.00200,0.00200,0.96594,11789.25586,11393.42480,0
22.70007,22.70007,22.70007,0.00199,0.00199,0.00199,0.96594,11789.25586,11393.43164,0
22.80007,22.80007,22.80007,0.00202,0.00202,0.00202,0.96594,11789.25586,11393.41699,0
22.90007,22.90007,22.90007,0.00192,0.00192,0.00192,0.96595,11789.25586,11393.48828,0
23.00007,23.00007,23.00007,0.00194,0.00194,0.00194,0.96595,11789.25586,11393.47363,0
23.10007,23.10007,23.10007,0.00194,0.00194,0.00194,0.96595,11789.25586,11393.47949,0
23.20007,23.20007,23.20007,0.00193,0.00193,0.00193,0.96595,11789.25586,11393.48535,0
23.30007,23.30007,23.30007,0.00195,0.00195,0.00195,0.96595,11789.25586,11393.47070,0
23.40007,23.40007,23.40007,0.00185,0.00185,0.00185,0.96595,11789.25586,11393.54102,0
23.50007,23.50007,23.50007,0.00188,0.00188,0.00188,0.96595,11789.25586,11393.52734,0
23.60007,23.60007,23.60007,0.00187,0.00187,0.00187,0.96595,11789.25586,11393.53320,0
23.70007,23.70007,23.70007,0.00187,0.00187,0.00187,0.96595,11789.25586,11393.53711,0
