x,y,z,vx,vy,vz,temperature,density,pressure,is_star
0.04118,0.04118,0.04118,1.24532,1.24532,1.24532,0.88919,11789.25586,10488.16992,0
0.11329,0.11329,0.11329,0.30222,0.30222,0.30222,0.94026,11789.25586,11090.52930,0
0.20870,0.20870,0.20870,0.22756,0.22756,0.22756,0.94893,11789.25586,11192.79102,0
0.30638,0.30638,0.30638,0.17135,0.17135,0.17135,0.95334,11789.25586,11244.83691,0
0.40503,0.40503,0.40503,0.13652,0.13652,0.13652,0.95593,11789.25586,11275.39746,0
0.50414,0.50414,0.50414,0.11317,0.11317,0.11317,0.95763,11789.25586,11295.41602,0
0.60352,0.60352,0.60352,0.09654,0.09654,0.09654,0.95883,11789.25586,11309.50879,0
0.70305,0.70305,0.70305,0.08407,0.08407,0.08407,0.95971,11789.25586,11319.97852,0
0.80270,0.80270,0.80270,0.07442,0.07442,0.07442,0.96040,11789.25586,11328.03418,0
0.90242,0.90242,0.90242,0.06673,0.06673,0.06673,0.96094,11789.25586,11334.43164,0
1.00219,1.00219,1.00219,0.06046,0.06046,0.06046,0.96138,11789.25586,11339.64062,0
1.10200,1.10200,1.10200,0.05525,0.05525,0.05525,0.96175,11789.25586,11343.95801,0
1.20184,1.20184,1.20184,0.05084,0.05084,0.05084,0.96206,11789.25586,11347.59863,0
1.30170,1.30170,1.30170,0.04710,0.04710,0.04710,0.96232,11789.25586,11350.68750,0
1.40158,1.40158,1.40158,0.04385,0.04385,0.04385,0.96255,11789.25586,11353.37500,0
1.50148,1.50148,1.50148,0.04098,0.04098,0.04098,0.96274,11789.25586,11355.72461,0
1.60139,1.60139,1.60139,0.03851,0.03851,0.03851,0.96292,11789.25586,11357.76367,0
1.70131,1.70131,1.70131,0.03630,0.03630,0.03630,0.96307,11789.25586,11359.59082,0
1.80124,1.80124,1.80124,0.03432,0.03432,0.03432,0.96321,11789.25586,11361.21484,0
1.90117,1.90117,1.90117,0.03249,0.03249,0.03249,0.96334,11789.25586,11362.70020,0
2.00111,2.00111,2.00111,0.03093,0.03093,0.03093,0.96345,11789.25586,11364.00195,0
2.10106,2.10106,2.10106,0.02947,0.02947,0.02947,0.96355,11789.25586,11365.19531,0
2.20101,2.20101,2.20101,0.02813,0.02813,0.02813,0.96364,11789.25586,11366.29688,0
2.30097,2.30097,2.30097,0.02690,0.02690,0.02690,0.96373,11789.25586,11367.30469,0
2.40093,2.40093,2.40093,0.02579,0.02579,0.02579,0.96380,11789.25586,11368.21777,0
2.50089,2.50089,2.50089,0.02477,0.02477,0.02477,0.96388,11789.25586,11369.06055,0
2.60086,2.60086,2.60086,0.02379,0.02379,0.02379,0.96394,11789.25586,11369.85449,0
2.70082,2.70082,2.70082,0.02292,0.02292,0.02292,0.96400,11789.25586,11370.57617,0
2.80079,2.80079,2.80079,0.02208,0.02208,0.02208,0.96406,11789.25586,11371.25488,0
2.90077,2.90077,2.90077,0.02133,0.02133,0.02133,0.96411,11789.25586,11371.87598,0
3.00074,3.00074,3.00074,0.02060,0.02060,0.02060,0.96417,11789.25586,11372.47461,0
3.10072,3.10072,3.10072,0.01993,0.01993,0.01993,0.96421,11789.25586,11373.02637,0
3.20069,3.20069,3.20069,0.01931,0.01931,0.01931,0.96426,11789.25586,11373.53613,0
3.30067,3.30067,3.30067,0.01869,0.01869,0.01869,0.96430,11789.25586,11374.03809,0
3.40065,3.40065,3.40065,0.01815,0.01815,0.01815,0.96434,11789.25586,11374.48047,0
3.50063,3.50063,3.50063,0.01760,0.01760,0.01760,0.96437,11789.25586,11374.92676,0
3.60062,3.60062,3.60062,0.01713,0.01713,0.01713,0.96441,11789.25586,11375.32422,0
3.70060,3.70060,3.70060,0.01660,0.01660,0.01660,0.96444,11789.25586,11375.74121,0
3.80058,3.80058,3.80058,0.01620,0.01620,0.01620,0.96447,11789.25586,11376.08398,0
3.90057,3.90057,3.90057,0.01579,0.01579,0.01579,0.96450,11789.25586,11376.42188,0
4.00055,4.00055,4.00055,0.01534,0.01534,0.01534,0.96453,11789.25586,11376.78516,0
4.10054,4.10054,4.10054,0.01495,0.01495,0.01495,0.96456,11789.25586,11377.09961,0
4.20053,4.20053,4.20053,0.01462,0.01462,0.01462,0.96458,11789.25586,11377.37793,0
4.30051,4.30051,4.30051,0.01426,0.01426,0.01426,0.96461,11789.25586,11377.67480,0
4.40050,4.40050,4.40050,0.01391,0.01391,0.01391,0.96463,11789.25586,11377.95605,0
4.50049,4.50049,4.50049,0.01359,0.01359,0.01359,0.96465,11789.25586,11378.21094,0
4.60048,4.60048,4.60048,0.01328,0.01328,0.01328,0.96467,11789.25586,11378.46973,0
4.70047,4.70047,4.70047,0.01300,0.01300,0.01300,0.96469,11789.25586,11378.70605,0
4.80046,4.80046,4.80046,0.01270,0.01270,0.01270,0.96471,11789.25586,11378.94043,0
4.90045,4.90045,4.90045,0.01245,0.01245,0.01245,0.96473,11789.25586,11379.16309,0
5.00044,5.00044,5.00044,0.01218,0.01218,0.01218,0.96475,11789.25586,11379.37207,0
5.10043,5.10043,5.10043,0.01192,0.01192,0.01192,0.96477,11789.25586,11379.58301,0
5.20042,5.20042,5.20042,0.01169,0.01169,0.01169,0.96478,11789.25586,11379.77148,0
5.30041,5.30041,5.30041,0.01146,0.01146,0.01146,0.96480,11789.25586,11379.96484,0
5.40040,5.40040,5.40040,0.01126,0.01126,0.01126,0.96481,11789.25586,11380.13574,0
5.50039,5.50039,5.50039,0.01097,0.01097,0.01097,0.96483,11789.25586,11380.34961,0
5.60039,5.60039,5.60039,0.01082,0.01082,0.01082,0.96484,11789.25586,11380.49316,0
5.70038,5.70038,5.70038,0.01063,0.01063,0.01063,0.96486,11789.25586,11380.64453,0
5.80038,5.80038,5.80038,0.01043,0.01043,0.01043,0.96487,11789.25586,11380.81055,0
5.90037,5.90037,5.90037,0.01022,0.01022,0.01022,0.96489,11789.25586,11380.97461,0
6.00036,6.00036,6.00036,0.01004,0.01004,0.01004,0.96490,11789.25586,11381.12500,0
6.10035,6.10035,6.10035,0.00986,0.00986,0.00986,0.96491,11789.25586,11381.26758,0
6.20035,6.20035,6.20035,0.00973,0.00973,0.00973,0.96492,11789.25586,11381.38770,0
6.30034,6.30034,6.30034,0.00953,0.00953,0.00953,0.96493,11789.25586,11381.53711,0
6.40034,6.40034,6.40034,0.00936,0.00936,0.00936,0.96495,11789.25586,11381.67676,0
6.50033,6.50033,6.50033,0.00924,0.00924,0.00924,0.96495,11789.25586,11381.78613,0
6.60033,6.60033,6.60033,0.00908,0.00908,0.00908,0.96497,11789.25586,11381.91406,0
6.70032,6.70032,6.70032,0.00893,0.00893,0.00893,0.96498,11789.25586,11382.03418,0
6.80032,6.80032,6.80032,0.00879,0.00879,0.00879,0.96499,11789.25586,11382.14648,0
6.90031,6.90031,6.90031,0.00866,0.00866,0.00866,0.96499,11789.25586,11382.26270,0
7.00031,7.00031,7.00031,0.00852,0.00852,0.00852,0.96500,11789.25586,11382.37598,0
7.10030,7.10030,7.10030,0.00836,0.00836,0.00836,0.96501,11789.25586,11382.49316,0
7.20030,7.20030,7.20030,0.00829,0.00829,0.00829,0.96502,11789.25586,11382.56348,0
7.30030,7.30030,7.30030,0.00819,0.00819,0.00819,0.96503,11789.25586,11382.65234,0
7.40029,7.40029,7.40029,0.00797,0.00797,0.00797,0.96504,11789.25586,11382.80762,0
7.50028,7.50028,7.50028,0.00791,0.00791,0.00791,0.96505,11789.25586,11382.87402,0
7.60028,7.60028,7.60028,0.00778,0.00778,0.00778,0.96506,11789.25586,11382.97754,0
7.70028,7.70028,7.70028,0.00769,0.00769,0.00769,0.96506,11789.25586,11383.05371,0
7.80027,7.80027,7.80027,0.00758,0.00758,0.00758,0.96507,11789.25586,11383.13965,0
7.90027,7.90027,7.90027,0.00749,0.00749,0.00749,0.96508,11789.25586,11383.21973,0
8.00026,8.00026,8.00026,0.00732,0.00732,0.00732,0.96509,11789.25586,11383.33984,0
8.10026,8.10026,8.10026,0.00729,0.00729,0.00729,0.96509,11789.25586,11383.38477,0
8.20026,8.20026,8.20026,0.00717,0.00717,0.00717,0.96510,11789.25586,11383.48145,0
8.30025,8.30025,8.30025,0.00706,0.00706,0.00706,0.96510,11789.25586,11383.55957,0
8.40025,8.40025,8.40025,0.00702,0.00702,0.00702,0.96511,11789.25586,11383.60547,0
8.50025,8.50025,8.50025,0.00685,0.00685,0.00685,0.96512,11789.25586,11383.72949,0
8.60025,8.60025,8.60025,0.00684,0.00684,0.00684,0.96512,11789.25586,11383.75586,0
8.70024,8.70024,8.70024,0.00668,0.00668,0.00668,0.96513,11789.25586,11383.86719,0
8.80024,8.80024,8.80024,0.00664,0.00664,0.00664,0.96513,11789.25586,11383.91113,0
8.90024,8.90024,8.90024,0.00662,0.00662,0.00662,0.96514,11789.25586,11383.94238,0
9.00023,9.00023,9.00023,0.00640,0.00640,0.00640,0.96515,11789.25586,11384.08984,0
9.10023,9.10023,9.10023,0.00641,0.00641,0.00641,0.96515,11789.25586,11384.10352,0
9.20023,9.20023,9.20023,0.00629,0.00629,0.00629,0.96516,11789.25586,11384.19434,0
9.30022,9.30022,9.30022,0.00624,0.00624,0.00624,0.96516,11789.25586,11384.23926,0
9.40022,9.40022,9.40022,0.00618,0.00618,0.00618,0.96517,11789.25586,11384.29004,0
9.50022,9.50022,9.50022,0.00608,0.00608,0.00608,0.96517,11789.25586,11384.37109,0
9.60021,9.60021,9.60021,0.00601,0.00601,0.00601,0.96518,11789.25586,11384.41699,0
9.70021,9.70021,9.70021,0.00593,0.00593,0.00593,0.96518,11789.25586,11384.48828,0
9.80021,9.80021,9.80021,0.00588,0.00588,0.00588,0.96519,11789.25586,11384.53125,0
9.90021,9.90021,9.90021,0.00582,0.00582,0.00582,0.96519,11789.25586,11384.57812,0
10.00021,10.00021,10.00021,0.00574,0.00574,0.00574,0.96520,11789.25586,11384.64648,0
10.10020,10.10020,10.10020,0.00570,0.00570,0.00570,0.96520,11789.25586,11384.68652,0
10.20020,10.20020,10.20020,0.00558,0.00558,0.00558,0.96521,11789.25586,11384.76562,0
10.30020,10.30020,10.30020,0.00556,0.00556,0.00556,0.96521,11789.25586,11384.79883,0
10.40020,10.40020,10.40020,0.00553,0.00553,0.00553,0.96521,11789.25586,11384.82812,0
10.50020,10.50020,10.50020,0.00542,0.00542,0.00542,0.96522,11789.25586,11384.90332,0
10.60019,10.60019,10.60019,0.00540,0.00540,0.00540,0.96522,11789.25586,11384.92871,0
10.70019,10.70019,10.70019,0.00529,0.00529,0.00529,0.96523,11789.25586,11385.01172,0
10.80019,10.80019,10.80019,0.00526,0.00526,0.00526,0.96523,11789.25586,11385.04102,0
10.90019,10.90019,10.90019,0.00521,0.00521,0.00521,0.96523,11789.25586,11385.07422,0
11.00019,11.00019,11.00019,0.00517,0.00517,0.00517,0.96524,11789.25586,11385.12695,0
11.10018,11.10018,11.10018,0.00509,0.00509,0.00509,0.96524,11789.25586,11385.17188,0
11.20018,11.20018,11.20018,0.00503,0.00503,0.00503,0.96525,11789.25586,11385.22754,0
11.30018,11.30018,11.30018,0.00500,0.00500,0.00500,0.96525,11789.25586,11385.25586,0
11.40018,11.40018,11.40018,0.00496,0.00496,0.00496,0.96525,11789.25586,11385.28906,0
11.50018,11.50018,11.50018,0.00489,0.00489,0.00489,0.96526,11789.25586,11385.34473,0
11.60017,11.60017,11.60017,0.00486,0.00486,0.00486,0.96526,11789.25586,11385.37012,0
11.70017,11.70017,11.70017,0.00477,0.00477,0.00477,0.96526,11789.25586,11385.43750,0
11.80017,11.80017,11.80017,0.00475,0.00475,0.00475,0.96527,11789.25586,11385.45703,0
11.90017,11.90017,11.90017,0.00474,0.00474,0.00474,0.96527,11789.25586,11385.47363,0
12.00017,12.00017,12.00017,0.00462,0.00462,0.00462,0.96527,11789.25586,11385.55273,0
12.10017,12.10017,12.10017,0.00465,0.00465,0.00465,0.96527,11789.25586,11385.54688,0
12.20016,12.20016,12.20016,0.00453,0.00453,0.00453,0.96528,11789.25586,11385.63477,0
12.30016,12.30016,12.30016,0.00452,0.00452,0.00452,0.96528,11789.25586,11385.64160,0
12.40016,12.40016,12.40016,0.00451,0.00451,0.00451,0.96528,11789.25586,11385.65625,0
12.50016,12.50016,12.50016,0.00440,0.00440,0.00440,0.96529,11789.25586,11385.73828,0
12.60016,12.60016,12.60016,0.00441,0.00441,0.00441,0.96529,11789.25586,11385.73828,0
12.70015,12.70015,12.70015,0.00434,0.00434,0.00434,0.96529,11789.25586,11385.79004,0
12.80015,12.80015,12.80015,0.00431,0.00431,0.00431,0.96530,11789.25586,11385.82227,0
12.90015,12.90015,12.90015,0.00430,0.00430,0.00430,0.96530,11789.25586,11385.82910,0
13.00015,13.00015,13.00015,0.00422,0.00422,0.00422,0.96530,11789.25586,11385.89355,0
13.10015,13.10015,13.10015,0.00420,0.00420,0.00420,0.96530,11789.25586,11385.90332,0
13.20015,13.20015,13.20015,0.00415,0.00415,0.00415,0.96531,11789.25586,11385.95801,0
13.30015,13.30015,13.30015,0.00412,0.00412,0.00412,0.96531,11789.25586,11385.97266,0
13.40015,13.40015,13.40015,0.00413,0.00413,0.00413,0.96531,11789.25586,11385.97461,0
13.50014,13.50014,13.50014,0.00400,0.00400,0.00400,0.96532,11789.25586,11386.05957,0
13.60014,13.60014,13.60014,0.00403,0.00403,0.00403,0.96532,11789.25586,11386.05273,0
13.70014,13.70014,13.70014,0.00395,0.00395,0.00395,0.96532,11789.25586,11386.10840,0
13.80014,13.80014,13.80014,0.00394,0.00394,0.00394,0.96532,11789.25586,11386.12109,0
13.90014,13.90014,13.90014,0.00393,0.00393,0.00393,0.96532,11789.25586,11386.13086,0
14.00014,14.00014,14.00014,0.00384,0.00384,0.00384,0.96533,11789.25586,11386.19434,0
14.10014,14.10014,14.10014,0.00386,0.00386,0.00386,0.96533,11789.25586,11386.19141,0
14.20014,14.20014,14.20014,0.00378,0.00378,0.00378,0.96533,11789.25586,11386.24512,0
14.30014,14.30014,14.30014,0.00378,0.00378,0.00378,0.96533,11789.25586,11386.25488,0
14.40014,14.40014,14.40014,0.00375,0.00375,0.00375,0.96534,11789.25586,11386.27539,0
14.50013,14.50013,14.50013,0.00368,0.00368,0.00368,0.96534,11789.25586,11386.32324,0
14.60013,14.60013,14.60013,0.00370,0.00370,0.00370,0.96534,11789.25586,11386.32422,0
14.70013,14.70013,14.70013,0.00363,0.00363,0.00363,0.96534,11789.25586,11386.37109,0
14.80013,14.80013,14.80013,0.00361,0.00361,0.00361,0.96534,11789.25586,11386.38867,0
14.90013,14.90013,14.90013,0.00362,0.00362,0.00362,0.96534,11789.25586,11386.38965,0
15.00013,15.00013,15.00013,0.00352,0.00352,0.00352,0.96535,11789.25586,11386.45703,0
15.10013,15.10013,15.10013,0.00355,0.00355,0.00355,0.96535,11789.25586,11386.44434,0
15.20012,15.20012,15.20012,0.00347,0.00347,0.00347,0.96535,11789.25586,11386.50391,0
15.30012,15.30012,15.30012,0.00347,0.00347,0.00347,0.96535,11789.25586,11386.50977,0
15.40012,15.40012,15.40012,0.00346,0.00346,0.00346,0.96536,11789.25586,11386.51562,0
15.50012,15.50012,15.50012,0.00340,0.00340,0.00340,0.96536,11789.25586,11386.56543,0
15.60012,15.60012,15.60012,0.00341,0.00341,0.00341,0.96536,11789.25586,11386.55859,0
15.70012,15.70012,15.70012,0.00333,0.00333,0.00333,0.96536,11789.25586,11386.61328,0
15.80012,15.80012,15.80012,0.00334,0.00334,0.00334,0.96536,11789.25586,11386.61426,0
15.90012,15.90012,15.90012,0.00339,0.00339,0.00339,0.96536,11789.25586,11386.58691,0
16.00011,16.00011,16.00011,0.00318,0.00318,0.00318,0.96537,11789.25586,11386.72168,0
16.10011,16.10011,16.10011,0.00324,0.00324,0.00324,0.96537,11789.25586,11386.69434,0
16.20011,16.20011,16.20011,0.00323,0.00323,0.00323,0.96537,11789.25586,11386.70410,0
16.30011,16.30011,16.30011,0.00323,0.00323,0.00323,0.96537,11789.25586,11386.70215,0
16.40011,16.40011,16.40011,0.00314,0.00314,0.00314,0.96538,11789.25586,11386.77246,0
16.50011,16.50011,16.50011,0.00314,0.00314,0.00314,0.96538,11789.25586,11386.77051,0
16.60011,16.60011,16.60011,0.00313,0.00313,0.00313,0.96538,11789.25586,11386.79004,0
16.70011,16.70011,16.70011,0.00310,0.00310,0.00310,0.96538,11789.25586,11386.80469,0
16.80011,16.80011,16.80011,0.00314,0.00314,0.00314,0.96538,11789.25586,11386.79199,0
16.90010,16.90010,16.90010,0.00300,0.00300,0.00300,0.96539,11789.25586,11386.88379,0
17.00010,17.00010,17.00010,0.00302,0.00302,0.00302,0.96539,11789.25586,11386.87012,0
17.10010,17.10010,17.10010,0.00301,0.00301,0.00301,0.96539,11789.25586,11386.88477,0
17.20010,17.20010,17.20010,0.00299,0.00299,0.00299,0.96539,11789.25586,11386.89844,0
17.30010,17.30010,17.30010,0.00301,0.00301,0.00301,0.96539,11789.25586,11386.88574,0
17.40009,17.40009,17.40009,0.00289,0.00289,0.00289,0.96539,11789.25586,11386.97559,0
17.50010,17.50010,17.50010,0.00291,0.00291,0.00291,0.96539,11789.25586,11386.96289,0
17.60009,17.60009,17.60009,0.00289,0.00289,0.00289,0.96539,11789.25586,11386.97559,0
17.70009,17.70009,17.70009,0.00288,0.00288,0.00288,0.96540,11789.25586,11386.98828,0
17.80010,17.80010,17.80010,0.00290,0.00290,0.00290,0.96539,11789.25586,11386.97461,0
17.90009,17.90009,17.90009,0.00278,0.00278,0.00278,0.96540,11789.25586,11387.06250,0
18.00009,18.00009,18.00009,0.00280,0.00280,0.00280,0.96540,11789.25586,11387.05078,0
18.10009,18.10009,18.10009,0.00279,0.00279,0.00279,0.96540,11789.25586,11387.06445,0
18.20009,18.20009,18.20009,0.00277,0.00277,0.00277,0.96540,11789.25586,11387.07422,0
18.30009,18.30009,18.30009,0.00280,0.00280,0.00280,0.96540,11789.25586,11387.06348,0
18.40009,18.40009,18.40009,0.00268,0.00268,0.00268,0.96541,11789.25586,11387.14844,0
18.50009,18.50009,18.50009,0.00270,0.00270,0.00270,0.96541,11789.25586,11387.13574,0
18.60009,18.60009,18.60009,0.00269,0.00269,0.00269,0.96541,11789.25586,11387.14648,0
18.70009,18.70009,18.70009,0.00267,0.00267,0.00267,0.96541,11789.25586,11387.15820,0
18.80009,18.80009,18.80009,0.00270,0.00270,0.00270,0.96541,11789.25586,11387.14551,0
18.90009,18.90009,18.90009,0.00258,0.00258,0.00258,0.96542,11789.25586,11387.22656,0
19.00009,19.00009,19.00009,0.00260,0.00260,0.00260,0.96541,11789.25586,11387.21387,0
19.10009,19.10009,19.10009,0.00259,0.00259,0.00259,0.96542,11789.25586,11387.22461,0
19.20009,19.20009,19.20009,0.00258,0.00258,0.00258,0.96542,11789.25586,11387.23633,0
19.30009,19.30009,19.30009,0.00260,0.00260,0.00260,0.96542,11789.25586,11387.22168,0
19.40008,19.40008,19.40008,0.00247,0.00247,0.00247,0.96542,11789.25586,11387.31152,0
19.50009,19.50009,19.50009,0.00255,0.00255,0.00255,0.96542,11789.25586,11387.27246,0
19.60008,19.60008,19.60008,0.00248,0.00248,0.00248,0.96542,11789.25586,11387.30859,0
19.70008,19.70008,19.70008,0.00249,0.00249,0.00249,0.96542,11789.25586,11387.31152,0
19.80009,19.80009,19.80009,0.00251,0.00251,0.00251,0.96542,11789.25586,11387.29883,0
19.90008,19.90008,19.90008,0.00238,0.00238,0.00238,0.96543,11789.25586,11387.38574,0
20.00008,20.00008,20.00008,0.00246,0.00246,0.00246,0.96543,11789.25586,11387.34473,0
20.10008,20.10008,20.10008,0.00240,0.00240,0.00240,0.96543,11789.25586,11387.37793,0
20.20008,20.20008,20.20008,0.00240,0.00240,0.00240,0.96543,11789.25586,11387.38184,0
20.30008,20.30008,20.30008,0.00241,0.00241,0.00241,0.96543,11789.25586,11387.37500,0
20.40008,20.40008,20.40008,0.00234,0.00234,0.00234,0.96543,11789.25586,11387.43555,0
20.50008,20.50008,20.50008,0.00236,0.00236,0.00236,0.96543,11789.25586,11387.42188,0
20.60008,20.60008,20.60008,0.00231,0.00231,0.00231,0.96543,11789.25586,11387.44824,0
20.70008,20.70008,20.70008,0.00232,0.00232,0.00232,0.96543,11789.25586,11387.45020,0
20.80008,20.80008,20.80008,0.00234,0.00234,0.00234,0.96543,11789.25586,11387.43555,0
20.90008,20.90008,20.90008,0.00222,0.00222,0.00222,0.96544,11789.25586,11387.51465,0
21.00008,21.00008,21.00008,0.00229,0.00229,0.00229,0.96544,11789.25586,11387.48340,0
21.10008,21.10008,21.10008,0.00223,0.00223,0.00223,0.96544,11789.25586,11387.50684,0
21.20008,21.20008,21.20008,0.00224,0.00224,0.00224,0.96544,11789.25586,11387.50977,0
21.30008,21.30008,21.30008,0.00226,0.00226,0.00226,0.96544,11789.25586,11387.50684,0
21.40008,21.40008,21.40008,0.00214,0.00214,0.00214,0.96545,11789.25586,11387.58496,0
21.50008,21.50008,21.50008,0.00222,0.00222,0.00222,0.96544,11789.25586,11387.54395,0
21.60008,21.60008,21.60008,0.00216,0.00216,0.00216,0.96545,11789.25586,11387.58008,0
21.70008,21.70008,21.70008,0.00216,0.00216,0.00216,0.96545,11789.25586,11387.58008,0
21.80008,21.80008,21.80008,0.00219,0.00219,0.00219,0.96544,11789.25586,11387.55957,0
21.90007,21.90007,21.90007,0.00207,0.00207,0.00207,0.96545,11789.25586,11387.64941,0
22.00008,22.00008,22.00008,0.00214,0.00214,0.00214,0.96545,11789.25586,11387.59961,0
22.10007,22.10007,22.10007,0.00209,0.00209,0.00209,0.96545,11789.25586,11387.64160,0
22.20008,22.20008,22.20008,0.00209,0.00209,0.00209,0.96545,11789.25586,11387.64062,0
22.30008,22.30008,22.30008,0.00212,0.00212,0.00212,0.96545,11789.25586,11387.62793,0
22.40007,22.40007,22.40007,0.00201,0.00201,0.00201,0.96546,11789.25586,11387.69141,0
22.50007,22.50007,22.50007,0.00204,0.00204,0.00204,0.96545,11789.25586,11387.67578,0
22.60007,22.60007,22.60007,0.00203,0.00203,0.00203,0.96545,11789.25586,11387.68262,0
22.70007,22.70007,22.70007,0.00202,0.00202,0.00202,0.96545,11789.25586,11387.68848,0
22.80007,22.80007,22.80007,0.00205,0.00205,0.00205,0.96545,11789.25586,11387.67383,0
22.90007,22.90007,22.90007,0.00194,0.00194,0.00194,0.96546,11789.25586,11387.74707,0
23.00007,23.00007,23.00007,0.00197,0.00197,0.00197,0.96546,11789.25586,11387.73242,0
23.10007,23.10007,23.10007,0.00196,0.00196,0.00196,0.96546,11789.25586,11387.73730,0
23.20007,23.20007,23.20007,0.00196,0.00196,0.00196,0.96546,11789.25586,11387.74414,0
23.30007,23.30007,23.30007,0.00198,0.00198,0.00198,0.96546,11789.25586,11387.72949,0
23.40007,23.40007,23.40007,0.00188,0.00188,0.00188,0.96546,11789.25586,11387.80078,0
23.50007,23.50007,23.50007,0.00190,0.00190,0.00190,0.96546,11789.25586,11387.78711,0
23.60007,23.60007,23.60007,0.00190,0.00190,0.00190,0.96546,11789.25586,11387.79297,0
23.70007,23.70007,23.70007,0.00189,0.00189,0.00189,0.96546,11789.25586,11387.79785,0
