x,y,z,vx,vy,vz,temperature,density,pressure,is_star
0.06156,0.06156,0.06156,1.66173,1.66173,1.66173,0.84767,11789.25586,9998.42090,0
0.11708,0.11708,0.11708,0.21804,0.21804,0.21804,0.92666,11789.25586,10930.05566,0
0.21210,0.21210,0.21210,0.25442,0.25442,0.25442,0.93592,11789.25586,11039.30762,0
0.30899,0.30899,0.30899,0.19738,0.19738,0.19738,0.94178,11789.25586,11108.41992,0
0.40711,0.40711,0.40711,0.15912,0.15912,0.15912,0.94531,11789.25586,11150.11426,0
0.50587,0.50587,0.50587,0.13274,0.13274,0.13274,0.94766,11789.25586,11177.75391,0
0.60500,0.60500,0.60500,0.11366,0.11366,0.11366,0.94932,11789.25586,11197.34375,0
0.70435,0.70435,0.70435,0.09922,0.09922,0.09922,0.95056,11789.25586,11211.96582,0
0.80384,0.80384,0.80384,0.08800,0.08800,0.08800,0.95151,11789.25586,11223.24707,0
0.90344,0.90344,0.90344,0.07901,0.07901,0.07901,0.95227,11789.25586,11232.22754,0
1.00312,1.00312,1.00312,0.07166,0.07166,0.07166,0.95290,11789.25586,11239.55176,0
1.10285,1.10285,1.10285,0.06553,0.06553,0.06553,0.95341,11789.25586,11245.63184,0
1.20262,1.20262,1.20262,0.06033,0.06033,0.06033,0.95385,11789.25586,11250.76172,0
1.30243,1.30243,1.30243,0.05593,0.05593,0.05593,0.95422,11789.25586,11255.11719,0
1.40226,1.40226,1.40226,0.05209,0.05209,0.05209,0.95454,11789.25586,11258.90918,0
1.50211,1.50211,1.50211,0.04869,0.04869,0.04869,0.95482,11789.25586,11262.23535,0
1.60198,1.60198,1.60198,0.04578,0.04578,0.04578,0.95506,11789.25586,11265.11035,0
1.70187,1.70187,1.70187,0.04315,0.04315,0.04315,0.95528,11789.25586,11267.69434,0
1.80177,1.80177,1.80177,0.04082,0.04082,0.04082,0.95548,11789.25586,11269.99023,0
1.90167,1.90167,1.90167,0.03864,0.03864,0.03864,0.95566,11789.25586,11272.10059,0
2.00159,2.00159,2.00159,0.03680,0.03680,0.03680,0.95581,11789.25586,11273.93066,0
2.10152,2.10152,2.10152,0.03506,0.03506,0.03506,0.95595,11789.25586,11275.62598,0
2.20145,2.20145,2.20145,0.03347,0.03347,0.03347,0.95609,11789.25586,11277.18457,0
2.30138,2.30138,2.30138,0.03202,0.03202,0.03202,0.95621,11789.25586,11278.61035,0
2.40133,2.40133,2.40133,0.03069,0.03069,0.03069,0.95632,11789.25586,11279.90527,0
2.50127,2.50127,2.50127,0.02948,0.02948,0.02948,0.95642,11789.25586,11281.09570,0
2.60122,2.60122,2.60122,0.02832,0.02832,0.02832,0.95651,11789.25586,11282.22363,0
2.70118,2.70118,2.70118,0.02728,0.02728,0.02728,0.95660,11789.25586,11283.24316,0
2.80114,2.80114,2.80114,0.02629,0.02629,0.02629,0.95668,11789.25586,11284.20996,0
2.90110,2.90110,2.90110,0.02540,0.02540,0.02540,0.95676,11789.25586,11285.08789,0
3.00106,3.00106,3.00106,0.02453,0.02453,0.02453,0.95683,11789.25586,11285.93652,0
3.10102,3.10102,3.10102,0.02373,0.02373,0.02373,0.95689,11789.25586,11286.71680,0
3.20099,3.20099,3.20099,0.02299,0.02299,0.02299,0.95696,11789.25586,11287.44238,0
3.30096,3.30096,3.30096,0.02225,0.02225,0.02225,0.95702,11789.25586,11288.15430,0
3.40093,3.40093,3.40093,0.02162,0.02162,0.02162,0.95707,11789.25586,11288.77930,0
3.50091,3.50091,3.50091,0.02096,0.02096,0.02096,0.95712,11789.25586,11289.41504,0
3.60088,3.60088,3.60088,0.02041,0.02041,0.02041,0.95717,11789.25586,11289.97168,0
3.70085,3.70085,3.70085,0.01976,0.01976,0.01976,0.95722,11789.25586,11290.57617,0
3.80083,3.80083,3.80083,0.01930,0.01930,0.01930,0.95726,11789.25586,11291.05078,0
3.90081,3.90081,3.90081,0.01881,0.01881,0.01881,0.95730,11789.25586,11291.53125,0
4.00079,4.00079,4.00079,0.01827,0.01827,0.01827,0.95735,11789.25586,11292.04785,0
4.10077,4.10077,4.10077,0.01780,0.01780,0.01780,0.95738,11789.25586,11292.49707,0
4.20075,4.20075,4.20075,0.01741,0.01741,0.01741,0.95742,11789.25586,11292.88770,0
4.30073,4.30073,4.30073,0.01699,0.01699,0.01699,0.95745,11789.25586,11293.30566,0
4.40072,4.40072,4.40072,0.01657,0.01657,0.01657,0.95749,11789.25586,11293.70898,0
4.50070,4.50070,4.50070,0.01619,0.01619,0.01619,0.95752,11789.25586,11294.07227,0
4.60068,4.60068,4.60068,0.01582,0.01582,0.01582,0.95755,11789.25586,11294.43945,0
4.70067,4.70067,4.70067,0.01550,0.01550,0.01550,0.95758,11789.25586,11294.76953,0
4.80065,4.80065,4.80065,0.01513,0.01513,0.01513,0.95761,11789.25586,11295.10742,0
4.90064,4.90064,4.90064,0.01483,0.01483,0.01483,0.95763,11789.25586,11295.41797,0
5.00063,5.00063,5.00063,0.01451,0.01451,0.01451,0.95766,11789.25586,11295.71875,0
5.10061,5.10061,5.10061,0.01420,0.01420,0.01420,0.95768,11789.25586,11296.01660,0
5.20060,5.20060,5.20060,0.01393,0.01393,0.01393,0.95771,11789.25586,11296.28516,0
5.30059,5.30059,5.30059,0.01364,0.01364,0.01364,0.95773,11789.25586,11296.55859,0
5.40058,5.40058,5.40058,0.01342,0.01342,0.01342,0.95775,11789.25586,11296.79785,0
5.50056,5.50056,5.50056,0.01306,0.01306,0.01306,0.95778,11789.25586,11297.11328,0
5.60056,5.60056,5.60056,0.01289,0.01289,0.01289,0.95779,11789.25586,11297.30762,0
5.70055,5.70055,5.70055,0.01267,0.01267,0.01267,0.95781,11789.25586,11297.52344,0
5.80054,5.80054,5.80054,0.01242,0.01242,0.01242,0.95783,11789.25586,11297.75879,0
5.90053,5.90053,5.90053,0.01217,0.01217,0.01217,0.95785,11789.25586,11297.99121,0
6.00052,6.00052,6.00052,0.01197,0.01197,0.01197,0.95787,11789.25586,11298.20312,0
6.10051,6.10051,6.10051,0.01175,0.01175,0.01175,0.95789,11789.25586,11298.41016,0
6.20050,6.20050,6.20050,0.01159,0.01159,0.01159,0.95790,11789.25586,11298.57324,0
6.30049,6.30049,6.30049,0.01136,0.01136,0.01136,0.95792,11789.25586,11298.79102,0
6.40048,6.40048,6.40048,0.01115,0.01115,0.01115,0.95793,11789.25586,11298.98926,0
6.50048,6.50048,6.50048,0.01101,0.01101,0.01101,0.95795,11789.25586,11299.14062,0
6.60047,6.60047,6.60047,0.01081,0.01081,0.01081,0.95796,11789.25586,11299.32422,0
6.70046,6.70046,6.70046,0.01063,0.01063,0.01063,0.95798,11789.25586,11299.49707,0
6.80045,6.80045,6.80045,0.01047,0.01047,0.01047,0.95799,11789.25586,11299.65527,0
6.90044,6.90044,6.90044,0.01032,0.01032,0.01032,0.95801,11789.25586,11299.81738,0
7.00044,7.00044,7.00044,0.01015,0.01015,0.01015,0.95802,11789.25586,11299.97852,0
7.10043,7.10043,7.10043,0.00994,0.00994,0.00994,0.95803,11789.25586,11300.15332,0
7.20043,7.20043,7.20043,0.00989,0.00989,0.00989,0.95804,11789.25586,11300.24219,0
7.30042,7.30042,7.30042,0.00977,0.00977,0.00977,0.95805,11789.25586,11300.36621,0
7.40041,7.40041,7.40041,0.00948,0.00948,0.00948,0.95807,11789.25586,11300.60059,0
7.50041,7.50041,7.50041,0.00943,0.00943,0.00943,0.95808,11789.25586,11300.68359,0
7.60040,7.60040,7.60040,0.00926,0.00926,0.00926,0.95809,11789.25586,11300.83594,0
7.70040,7.70040,7.70040,0.00917,0.00917,0.00917,0.95810,11789.25586,11300.93945,0
7.80039,7.80039,7.80039,0.00903,0.00903,0.00903,0.95811,11789.25586,11301.06348,0
7.90039,7.90039,7.90039,0.00894,0.00894,0.00894,0.95812,11789.25586,11301.17383,0
8.00038,8.00038,8.00038,0.00871,0.00871,0.00871,0.95814,11789.25586,11301.35645,0
8.10037,8.10037,8.10037,0.00869,0.00869,0.00869,0.95814,11789.25586,11301.40723,0
8.20037,8.20037,8.20037,0.00854,0.00854,0.00854,0.95815,11789.25586,11301.54688,0
8.30036,8.30036,8.30036,0.00841,0.00841,0.00841,0.95816,11789.25586,11301.66309,0
8.40036,8.40036,8.40036,0.00838,0.00838,0.00838,0.95817,11789.25586,11301.71875,0
8.50035,8.50035,8.50035,0.00814,0.00814,0.00814,0.95818,11789.25586,11301.91016,0
8.60035,8.60035,8.60035,0.00816,0.00816,0.00816,0.95818,11789.25586,11301.93359,0
8.70034,8.70034,8.70034,0.00795,0.00795,0.00795,0.95820,11789.25586,11302.10352,0
8.80034,8.80034,8.80034,0.00791,0.00791,0.00791,0.95820,11789.25586,11302.15820,0
8.90034,8.90034,8.90034,0.00790,0.00790,0.00790,0.95821,11789.25586,11302.19531,0
9.00033,9.00033,9.00033,0.00761,0.00761,0.00761,0.95823,11789.25586,11302.42383,0
9.10033,9.10033,9.10033,0.00765,0.00765,0.00765,0.95823,11789.25586,11302.42871,0
9.20032,9.20032,9.20032,0.00750,0.00750,0.00750,0.95824,11789.25586,11302.55957,0
9.30032,9.30032,9.30032,0.00743,0.00743,0.00743,0.95824,11789.25586,11302.62500,0
9.40032,9.40032,9.40032,0.00736,0.00736,0.00736,0.95825,11789.25586,11302.69727,0
9.50031,9.50031,9.50031,0.00725,0.00725,0.00725,0.95826,11789.25586,11302.81055,0
9.60031,9.60031,9.60031,0.00717,0.00717,0.00717,0.95826,11789.25586,11302.87988,0
9.70030,9.70030,9.70030,0.00707,0.00707,0.00707,0.95827,11789.25586,11302.97754,0
9.80030,9.80030,9.80030,0.00701,0.00701,0.00701,0.95828,11789.25586,11303.04004,0
9.90030,9.90030,9.90030,0.00694,0.00694,0.00694,0.95828,11789.25586,11303.10742,0
10.00030,10.00030,10.00030,0.00684,0.00684,0.00684,0.95829,11789.25586,11303.20117,0
10.10029,10.10029,10.10029,0.00679,0.00679,0.00679,0.95830,11789.25586,11303.25781,0
10.20029,10.20029,10.20029,0.00664,0.00664,0.00664,0.95831,11789.25586,11303.37793,0
10.30029,10.30029,10.30029,0.00662,0.00662,0.00662,0.95831,11789.25586,11303.41797,0
10.40029,10.40029,10.40029,0.00660,0.00660,0.00660,0.95831,11789.25586,11303.45605,0
10.50028,10.50028,10.50028,0.00646,0.00646,0.00646,0.95832,11789.25586,11303.56934,0
10.60028,10.60028,10.60028,0.00644,0.00644,0.00644,0.95833,11789.25586,11303.60156,0
10.70027,10.70027,10.70027,0.00629,0.00629,0.00629,0.95834,11789.25586,11303.72461,0
10.80027,10.80027,10.80027,0.00627,0.00627,0.00627,0.95834,11789.25586,11303.76172,0
10.90027,10.90027,10.90027,0.00621,0.00621,0.00621,0.95834,11789.25586,11303.81250,0
11.00026,11.00026,11.00026,0.00616,0.00616,0.00616,0.95835,11789.25586,11303.88184,0
11.10026,11.10026,11.10026,0.00606,0.00606,0.00606,0.95836,11789.25586,11303.95410,0
11.20026,11.20026,11.20026,0.00599,0.00599,0.00599,0.95836,11789.25586,11304.02734,0
11.30026,11.30026,11.30026,0.00596,0.00596,0.00596,0.95837,11789.25586,11304.06641,0
11.40025,11.40025,11.40025,0.00591,0.00591,0.00591,0.95837,11789.25586,11304.11523,0
11.50025,11.50025,11.50025,0.00582,0.00582,0.00582,0.95838,11789.25586,11304.19629,0
11.60025,11.60025,11.60025,0.00580,0.00580,0.00580,0.95838,11789.25586,11304.22852,0
11.70024,11.70024,11.70024,0.00567,0.00567,0.00567,0.95839,11789.25586,11304.32617,0
11.80025,11.80025,11.80025,0.00567,0.00567,0.00567,0.95839,11789.25586,11304.35645,0
11.90024,11.90024,11.90024,0.00565,0.00565,0.00565,0.95839,11789.25586,11304.37305,0
12.00024,12.00024,12.00024,0.00550,0.00550,0.00550,0.95840,11789.25586,11304.49316,0
12.10024,12.10024,12.10024,0.00555,0.00555,0.00555,0.95840,11789.25586,11304.47461,0
12.20023,12.20023,12.20023,0.00539,0.00539,0.00539,0.95841,11789.25586,11304.60742,0
12.30023,12.30023,12.30023,0.00538,0.00538,0.00538,0.95841,11789.25586,11304.61914,0
12.40023,12.40023,12.40023,0.00539,0.00539,0.00539,0.95841,11789.25586,11304.63281,0
12.50022,12.50022,12.50022,0.00524,0.00524,0.00524,0.95842,11789.25586,11304.75586,0
12.60022,12.60022,12.60022,0.00526,0.00526,0.00526,0.95842,11789.25586,11304.75195,0
12.70022,12.70022,12.70022,0.00517,0.00517,0.00517,0.95843,11789.25586,11304.82617,0
12.80022,12.80022,12.80022,0.00513,0.00513,0.00513,0.95843,11789.25586,11304.87012,0
12.90022,12.90022,12.90022,0.00514,0.00514,0.00514,0.95843,11789.25586,11304.87793,0
13.00022,13.00022,13.00022,0.00502,0.00502,0.00502,0.95844,11789.25586,11304.97363,0
13.10021,13.10021,13.10021,0.00500,0.00500,0.00500,0.95844,11789.25586,11304.98828,0
13.20021,13.20021,13.20021,0.00494,0.00494,0.00494,0.95845,11789.25586,11305.06250,0
13.30021,13.30021,13.30021,0.00491,0.00491,0.00491,0.95845,11789.25586,11305.08594,0
13.40021,13.40021,13.40021,0.00493,0.00493,0.00493,0.95845,11789.25586,11305.08203,0
13.50021,13.50021,13.50021,0.00476,0.00476,0.00476,0.95846,11789.25586,11305.21387,0
13.60021,13.60021,13.60021,0.00481,0.00481,0.00481,0.95846,11789.25586,11305.19629,0
13.70020,13.70020,13.70020,0.00470,0.00470,0.00470,0.95847,11789.25586,11305.28027,0
13.80020,13.80020,13.80020,0.00470,0.00470,0.00470,0.95847,11789.25586,11305.29590,0
13.90020,13.90020,13.90020,0.00469,0.00469,0.00469,0.95847,11789.25586,11305.30664,0
14.00020,14.00020,14.00020,0.00457,0.00457,0.00457,0.95848,11789.25586,11305.40332,0
14.10020,14.10020,14.10020,0.00460,0.00460,0.00460,0.95848,11789.25586,11305.39551,0
14.20019,14.20019,14.20019,0.00450,0.00450,0.00450,0.95848,11789.25586,11305.47559,0
14.30019,14.30019,14.30019,0.00451,0.00451,0.00451,0.95849,11789.25586,11305.48438,0
14.40019,14.40019,14.40019,0.00448,0.00448,0.00448,0.95849,11789.25586,11305.51465,0
14.50019,14.50019,14.50019,0.00438,0.00438,0.00438,0.95849,11789.25586,11305.58691,0
14.60019,14.60019,14.60019,0.00442,0.00442,0.00442,0.95849,11789.25586,11305.58008,0
14.70018,14.70018,14.70018,0.00432,0.00432,0.00432,0.95850,11789.25586,11305.65332,0
14.80018,14.80018,14.80018,0.00430,0.00430,0.00430,0.95850,11789.25586,11305.67871,0
14.90018,14.90018,14.90018,0.00432,0.00432,0.00432,0.95850,11789.25586,11305.67383,0
15.00018,15.00018,15.00018,0.00419,0.00419,0.00419,0.95851,11789.25586,11305.77637,0
15.10018,15.10018,15.10018,0.00424,0.00424,0.00424,0.95851,11789.25586,11305.75098,0
15.20018,15.20018,15.20018,0.00412,0.00412,0.00412,0.95852,11789.25586,11305.84473,0
15.30018,15.30018,15.30018,0.00413,0.00413,0.00413,0.95852,11789.25586,11305.84961,0
15.40018,15.40018,15.40018,0.00413,0.00413,0.00413,0.95852,11789.25586,11305.85547,0
15.50017,15.50017,15.50017,0.00404,0.00404,0.00404,0.95852,11789.25586,11305.92871,0
15.60017,15.60017,15.60017,0.00407,0.00407,0.00407,0.95852,11789.25586,11305.91406,0
15.70017,15.70017,15.70017,0.00396,0.00396,0.00396,0.95853,11789.25586,11306.00195,0
15.80017,15.80017,15.80017,0.00398,0.00398,0.00398,0.95853,11789.25586,11305.99707,0
15.90017,15.90017,15.90017,0.00406,0.00406,0.00406,0.95852,11789.25586,11305.94922,0
16.00016,16.00016,16.00016,0.00378,0.00378,0.00378,0.95854,11789.25586,11306.16016,0
16.10017,16.10017,16.10017,0.00387,0.00387,0.00387,0.95854,11789.25586,11306.10840,0
16.20017,16.20017,16.20017,0.00385,0.00385,0.00385,0.95854,11789.25586,11306.12500,0
16.30017,16.30017,16.30017,0.00386,0.00386,0.00386,0.95854,11789.25586,11306.11914,0
16.40016,16.40016,16.40016,0.00373,0.00373,0.00373,0.95855,11789.25586,11306.22559,0
16.50016,16.50016,16.50016,0.00375,0.00375,0.00375,0.95855,11789.25586,11306.21973,0
16.60016,16.60016,16.60016,0.00373,0.00373,0.00373,0.95855,11789.25586,11306.24316,0
16.70016,16.70016,16.70016,0.00369,0.00369,0.00369,0.95855,11789.25586,11306.26758,0
16.80016,16.80016,16.80016,0.00376,0.00376,0.00376,0.95855,11789.25586,11306.23926,0
16.90015,16.90015,16.90015,0.00355,0.00355,0.00355,0.95856,11789.25586,11306.38672,0
17.00015,17.00015,17.00015,0.00360,0.00360,0.00360,0.95856,11789.25586,11306.36035,0
17.10015,17.10015,17.10015,0.00358,0.00358,0.00358,0.95856,11789.25586,11306.38086,0
17.20016,17.20016,17.20016,0.00357,0.00357,0.00357,0.95856,11789.25586,11306.39844,0
17.30016,17.30016,17.30016,0.00361,0.00361,0.00361,0.95856,11789.25586,11306.37695,0
17.40015,17.40015,17.40015,0.00341,0.00341,0.00341,0.95857,11789.25586,11306.51562,0
17.50015,17.50015,17.50015,0.00348,0.00348,0.00348,0.95857,11789.25586,11306.49023,0
17.60015,17.60015,17.60015,0.00344,0.00344,0.00344,0.95857,11789.25586,11306.51074,0
17.70015,17.70015,17.70015,0.00343,0.00343,0.00343,0.95857,11789.25586,11306.52832,0
17.80015,17.80015,17.80015,0.00349,0.00349,0.00349,0.95857,11789.25586,11306.50098,0
17.90014,17.90014,17.90014,0.00328,0.00328,0.00328,0.95858,11789.25586,11306.63965,0
18.00014,18.00014,18.00014,0.00334,0.00334,0.00334,0.95858,11789.25586,11306.61621,0
18.10014,18.10014,18.10014,0.00333,0.00333,0.00333,0.95858,11789.25586,11306.63379,0
18.20014,18.20014,18.20014,0.00330,0.00330,0.00330,0.95858,11789.25586,11306.65039,0
18.30014,18.30014,18.30014,0.00335,0.00335,0.00335,0.95858,11789.25586,11306.62695,0
18.40013,18.40013,18.40013,0.00318,0.00318,0.00318,0.95859,11789.25586,11306.75879,0
18.50013,18.50013,18.50013,0.00322,0.00322,0.00322,0.95859,11789.25586,11306.73730,0
18.60013,18.60013,18.60013,0.00320,0.00320,0.00320,0.95859,11789.25586,11306.75098,0
18.70013,18.70013,18.70013,0.00318,0.00318,0.00318,0.95859,11789.25586,11306.76855,0
18.80013,18.80013,18.80013,0.00323,0.00323,0.00323,0.95859,11789.25586,11306.74609,0
18.90013,18.90013,18.90013,0.00306,0.00306,0.00306,0.95860,11789.25586,11306.87012,0
19.00013,19.00013,19.00013,0.00310,0.00310,0.00310,0.95860,11789.25586,11306.84766,0
19.10013,19.10013,19.10013,0.00309,0.00309,0.00309,0.95860,11789.25586,11306.86426,0
19.20013,19.20013,19.20013,0.00307,0.00307,0.00307,0.95860,11789.25586,11306.87891,0
19.30013,19.30013,19.30013,0.00311,0.00311,0.00311,0.95860,11789.25586,11306.85645,0
19.40012,19.40012,19.40012,0.00293,0.00293,0.00293,0.95861,11789.25586,11306.99414,0
19.50012,19.50012,19.50012,0.00305,0.00305,0.00305,0.95861,11789.25586,11306.92383,0
19.60012,19.60012,19.60012,0.00295,0.00295,0.00295,0.95861,11789.25586,11306.98438,0
19.70012,19.70012,19.70012,0.00296,0.00296,0.00296,0.95861,11789.25586,11306.98730,0
19.80012,19.80012,19.80012,0.00299,0.00299,0.00299,0.95861,11789.25586,11306.96484,0
19.90011,19.90011,19.90011,0.00283,0.00283,0.00283,0.95862,11789.25586,11307.09961,0
20.00012,20.00012,20.00012,0.00294,0.00294,0.00294,0.95862,11789.25586,11307.02930,0
20.10011,20.10011,20.10011,0.00285,0.00285,0.00285,0.95862,11789.25586,11307.08203,0
20.20011,20.20011,20.20011,0.00286,0.00286,0.00286,0.95862,11789.25586,11307.08691,0
20.30011,20.30011,20.30011,0.00287,0.00287,0.00287,0.95862,11789.25586,11307.08008,0
20.40011,20.40011,20.40011,0.00278,0.00278,0.00278,0.95863,11789.25586,11307.16016,0
20.50011,20.50011,20.50011,0.00281,0.00281,0.00281,0.95863,11789.25586,11307.13672,0
20.60011,20.60011,20.60011,0.00275,0.00275,0.00275,0.95863,11789.25586,11307.18262,0
20.70011,20.70011,20.70011,0.00276,0.00276,0.00276,0.95863,11789.25586,11307.18457,0
20.80011,20.80011,20.80011,0.00279,0.00279,0.00279,0.95863,11789.25586,11307.16016,0
20.90010,20.90010,20.90010,0.00264,0.00264,0.00264,0.95864,11789.25586,11307.28223,0
21.00011,21.00011,21.00011,0.00274,0.00274,0.00274,0.95863,11789.25586,11307.22656,0
21.10011,21.10011,21.10011,0.00266,0.00266,0.00266,0.95864,11789.25586,11307.27051,0
21.20011,21.20011,21.20011,0.00267,0.00267,0.00267,0.95864,11789.25586,11307.27051,0
21.30011,21.30011,21.30011,0.00270,0.00270,0.00270,0.95864,11789.25586,11307.25977,0
21.40010,21.40010,21.40010,0.00255,0.00255,0.00255,0.95865,11789.25586,11307.37988,0
21.50010,21.50010,21.50010,0.00265,0.00265,0.00265,0.95864,11789.25586,11307.31055,0
21.60010,21.60010,21.60010,0.00257,0.00257,0.00257,0.95865,11789.25586,11307.36816,0
21.70010,21.70010,21.70010,0.00258,0.00258,0.00258,0.95865,11789.25586,11307.36621,0
21.80010,21.80010,21.80010,0.00261,0.00261,0.00261,0.95864,11789.25586,11307.33594,0
21.90010,21.90010,21.90010,0.00246,0.00246,0.00246,0.95865,11789.25586,11307.46777,0
22.00010,22.00010,22.00010,0.00256,0.00256,0.00256,0.95865,11789.25586,11307.39258,0
22.10010,22.10010,22.10010,0.00248,0.00248,0.00248,0.95865,11789.25586,11307.45410,0
22.20010,22.20010,22.20010,0.00249,0.00249,0.00249,0.95865,11789.25586,11307.45117,0
22.30010,22.30010,22.30010,0.00253,0.00253,0.00253,0.95865,11789.25586,11307.42969,0
22.40010,22.40010,22.40010,0.00239,0.00239,0.00239,0.95866,11789.25586,11307.53027,0
22.50010,22.50010,22.50010,0.00243,0.00243,0.00243,0.95866,11789.25586,11307.50586,0
22.60010,22.60010,22.60010,0.00242,0.00242,0.00242,0.95866,11789.25586,11307.51367,0
22.70010,22.70010,22.70010,0.00241,0.00241,0.00241,0.95866,11789.25586,11307.52344,0
22.80010,22.80010,22.80010,0.00244,0.00244,0.00244,0.95866,11789.25586,11307.49902,0
22.90010,22.90010,22.90010,0.00231,0.00231,0.00231,0.95867,11789.25586,11307.60840,0
23.00010,23.00010,23.00010,0.00235,0.00235,0.00235,0.95866,11789.25586,11307.58398,0
23.10010,23.10010,23.10010,0.00234,0.00234,0.00234,0.95866,11789.25586,11307.59180,0
23.20010,23.20010,23.20010,0.00233,0.00233,0.00233,0.95867,11789.25586,11307.60156,0
23.30010,23.30010,23.30010,0.00236,0.00236,0.00236,0.95866,11789.25586,11307.57715,0
23.40009,23.40009,23.40009,0.00224,0.00224,0.00224,0.95867,11789.25586,11307.68457,0
23.50010,23.50010,23.50010,0.00227,0.00227,0.00227,0.95867,11789.25586,11307.66309,0
23.60010,23.60010,23.60010,0.00226,0.00226,0.00226,0.95867,11789.25586,11307.66992,0
23.70010,23.70010,23.70010,0.00225,0.00225,0.00225,0.95867,11789.25586,11307.67578,0
