x,y,z,vx,vy,vz,temperature,density,pressure,is_star
0.03634,0.03634,0.03634,1.15051,1.15051,1.15051,0.89965,11789.25586,10611.55664,0
0.11207,0.11207,0.11207,0.30453,0.30453,0.30453,0.94444,11789.25586,11139.79492,0
0.20781,0.20781,0.20781,0.21821,0.21821,0.21821,0.95254,11789.25586,11235.35449,0
0.30571,0.30571,0.30571,0.16322,0.16322,0.16322,0.95654,11789.25586,11282.55566,0
0.40449,0.40449,0.40449,0.12968,0.12968,0.12968,0.95888,11789.25586,11310.10742,0
0.50370,0.50370,0.50370,0.10734,0.10734,0.10734,0.96040,11789.25586,11328.10254,0
0.60314,0.60314,0.60314,0.09148,0.09148,0.09148,0.96148,11789.25586,11340.75000,0
0.70272,0.70272,0.70272,0.07961,0.07961,0.07961,0.96227,11789.25586,11350.13574,0
0.80241,0.80241,0.80241,0.07045,0.07045,0.07045,0.96288,11789.25586,11357.35059,0
0.90215,0.90215,0.90215,0.06315,0.06315,0.06315,0.96337,11789.25586,11363.07910,0
1.00195,1.00195,1.00195,0.05720,0.05720,0.05720,0.96376,11789.25586,11367.74219,0
1.10178,1.10178,1.10178,0.05226,0.05226,0.05226,0.96409,11789.25586,11371.60449,0
1.20164,1.20164,1.20164,0.04808,0.04808,0.04808,0.96437,11789.25586,11374.85938,0
1.30152,1.30152,1.30152,0.04454,0.04454,0.04454,0.96460,11789.25586,11377.62207,0
1.40141,1.40141,1.40141,0.04146,0.04146,0.04146,0.96481,11789.25586,11380.02441,0
1.50132,1.50132,1.50132,0.03874,0.03874,0.03874,0.96498,11789.25586,11382.12500,0
1.60124,1.60124,1.60124,0.03641,0.03641,0.03641,0.96514,11789.25586,11383.94727,0
1.70117,1.70117,1.70117,0.03431,0.03431,0.03431,0.96528,11789.25586,11385.58105,0
1.80110,1.80110,1.80110,0.03244,0.03244,0.03244,0.96540,11789.25586,11387.03223,0
1.90104,1.90104,1.90104,0.03071,0.03071,0.03071,0.96551,11789.25586,11388.35840,0
2.00099,2.00099,2.00099,0.02924,0.02924,0.02924,0.96561,11789.25586,11389.52246,0
2.10095,2.10095,2.10095,0.02785,0.02785,0.02785,0.96570,11789.25586,11390.58789,0
2.20090,2.20090,2.20090,0.02658,0.02658,0.02658,0.96578,11789.25586,11391.57324,0
2.30086,2.30086,2.30086,0.02543,0.02543,0.02543,0.96586,11789.25586,11392.47266,0
2.40083,2.40083,2.40083,0.02437,0.02437,0.02437,0.96593,11789.25586,11393.28711,0
2.50079,2.50079,2.50079,0.02341,0.02341,0.02341,0.96599,11789.25586,11394.04102,0
2.60076,2.60076,2.60076,0.02249,0.02249,0.02249,0.96605,11789.25586,11394.75000,0
2.70074,2.70074,2.70074,0.02166,0.02166,0.02166,0.96611,11789.25586,11395.39453,0
2.80071,2.80071,2.80071,0.02087,0.02087,0.02087,0.96616,11789.25586,11396.00098,0
2.90068,2.90068,2.90068,0.02016,0.02016,0.02016,0.96621,11789.25586,11396.55566,0
3.00066,3.00066,3.00066,0.01947,0.01947,0.01947,0.96625,11789.25586,11397.09082,0
3.10064,3.10064,3.10064,0.01883,0.01883,0.01883,0.96629,11789.25586,11397.58301,0
3.20062,3.20062,3.20062,0.01824,0.01824,0.01824,0.96633,11789.25586,11398.03906,0
3.30060,3.30060,3.30060,0.01766,0.01766,0.01766,0.96637,11789.25586,11398.48730,0
3.40058,3.40058,3.40058,0.01715,0.01715,0.01715,0.96640,11789.25586,11398.88184,0
3.50056,3.50056,3.50056,0.01663,0.01663,0.01663,0.96644,11789.25586,11399.28027,0
3.60055,3.60055,3.60055,0.01619,0.01619,0.01619,0.96647,11789.25586,11399.63477,0
3.70053,3.70053,3.70053,0.01569,0.01569,0.01569,0.96650,11789.25586,11400.00684,0
3.80052,3.80052,3.80052,0.01531,0.01531,0.01531,0.96653,11789.25586,11400.31348,0
3.90051,3.90051,3.90051,0.01492,0.01492,0.01492,0.96655,11789.25586,11400.61621,0
4.00049,4.00049,4.00049,0.01449,0.01449,0.01449,0.96658,11789.25586,11400.93945,0
4.10048,4.10048,4.10048,0.01413,0.01413,0.01413,0.96660,11789.25586,11401.22070,0
4.20047,4.20047,4.20047,0.01381,0.01381,0.01381,0.96662,11789.25586,11401.46875,0
4.30046,4.30046,4.30046,0.01347,0.01347,0.01347,0.96665,11789.25586,11401.73438,0
4.40045,4.40045,4.40045,0.01314,0.01314,0.01314,0.96667,11789.25586,11401.98535,0
4.50044,4.50044,4.50044,0.01284,0.01284,0.01284,0.96669,11789.25586,11402.21289,0
4.60043,4.60043,4.60043,0.01255,0.01255,0.01255,0.96671,11789.25586,11402.44336,0
4.70042,4.70042,4.70042,0.01229,0.01229,0.01229,0.96672,11789.25586,11402.65625,0
4.80041,4.80041,4.80041,0.01200,0.01200,0.01200,0.96674,11789.25586,11402.86426,0
4.90040,4.90040,4.90040,0.01176,0.01176,0.01176,0.96676,11789.25586,11403.06445,0
5.00039,5.00039,5.00039,0.01151,0.01151,0.01151,0.96677,11789.25586,11403.25000,0
5.10038,5.10038,5.10038,0.01127,0.01127,0.01127,0.96679,11789.25586,11403.43750,0
5.20037,5.20037,5.20037,0.01105,0.01105,0.01105,0.96680,11789.25586,11403.60547,0
5.30037,5.30037,5.30037,0.01082,0.01082,0.01082,0.96682,11789.25586,11403.77832,0
5.40036,5.40036,5.40036,0.01063,0.01063,0.01063,0.96683,11789.25586,11403.93164,0
5.50035,5.50035,5.50035,0.01037,0.01037,0.01037,0.96685,11789.25586,11404.12109,0
5.60035,5.60035,5.60035,0.01022,0.01022,0.01022,0.96686,11789.25586,11404.25195,0
5.70034,5.70034,5.70034,0.01004,0.01004,0.01004,0.96687,11789.25586,11404.38672,0
5.80033,5.80033,5.80033,0.00985,0.00985,0.00985,0.96688,11789.25586,11404.53516,0
5.90033,5.90033,5.90033,0.00966,0.00966,0.00966,0.96690,11789.25586,11404.67969,0
6.00032,6.00032,6.00032,0.00949,0.00949,0.00949,0.96691,11789.25586,11404.81445,0
6.10032,6.10032,6.10032,0.00932,0.00932,0.00932,0.96692,11789.25586,11404.94238,0
6.20031,6.20031,6.20031,0.00919,0.00919,0.00919,0.96693,11789.25586,11405.04883,0
6.30031,6.30031,6.30031,0.00901,0.00901,0.00901,0.96694,11789.25586,11405.18164,0
6.40030,6.40030,6.40030,0.00885,0.00885,0.00885,0.96695,11789.25586,11405.30859,0
6.50030,6.50030,6.50030,0.00873,0.00873,0.00873,0.96696,11789.25586,11405.40625,0
6.60029,6.60029,6.60029,0.00857,0.00857,0.00857,0.96697,11789.25586,11405.51953,0
6.70029,6.70029,6.70029,0.00843,0.00843,0.00843,0.96698,11789.25586,11405.62695,0
6.80028,6.80028,6.80028,0.00831,0.00831,0.00831,0.96698,11789.25586,11405.72754,0
6.90028,6.90028,6.90028,0.00818,0.00818,0.00818,0.96699,11789.25586,11405.83203,0
7.00027,7.00027,7.00027,0.00805,0.00805,0.00805,0.96700,11789.25586,11405.93262,0
7.10027,7.10027,7.10027,0.00790,0.00790,0.00790,0.96701,11789.25586,11406.03516,0
7.20027,7.20027,7.20027,0.00783,0.00783,0.00783,0.96702,11789.25586,11406.09863,0
7.30026,7.30026,7.30026,0.00773,0.00773,0.00773,0.96702,11789.25586,11406.17871,0
7.40025,7.40025,7.40025,0.00753,0.00753,0.00753,0.96703,11789.25586,11406.31543,0
7.50025,7.50025,7.50025,0.00747,0.00747,0.00747,0.96704,11789.25586,11406.37695,0
7.60025,7.60025,7.60025,0.00735,0.00735,0.00735,0.96705,11789.25586,11406.46777,0
7.70025,7.70025,7.70025,0.00727,0.00727,0.00727,0.96705,11789.25586,11406.53613,0
7.80024,7.80024,7.80024,0.00716,0.00716,0.00716,0.96706,11789.25586,11406.61328,0
7.90024,7.90024,7.90024,0.00708,0.00708,0.00708,0.96707,11789.25586,11406.68555,0
8.00023,8.00023,8.00023,0.00692,0.00692,0.00692,0.96707,11789.25586,11406.79004,0
8.10023,8.10023,8.10023,0.00688,0.00688,0.00688,0.96708,11789.25586,11406.83301,0
8.20023,8.20023,8.20023,0.00677,0.00677,0.00677,0.96709,11789.25586,11406.91797,0
8.30023,8.30023,8.30023,0.00667,0.00667,0.00667,0.96709,11789.25586,11406.98828,0
8.40023,8.40023,8.40023,0.00663,0.00663,0.00663,0.96709,11789.25586,11407.03223,0
8.50022,8.50022,8.50022,0.00647,0.00647,0.00647,0.96710,11789.25586,11407.13867,0
8.60022,8.60022,8.60022,0.00646,0.00646,0.00646,0.96711,11789.25586,11407.16602,0
8.70021,8.70021,8.70021,0.00631,0.00631,0.00631,0.96711,11789.25586,11407.26270,0
8.80021,8.80021,8.80021,0.00627,0.00627,0.00627,0.96712,11789.25586,11407.30176,0
8.90021,8.90021,8.90021,0.00625,0.00625,0.00625,0.96712,11789.25586,11407.33203,0
9.00020,9.00020,9.00020,0.00605,0.00605,0.00605,0.96713,11789.25586,11407.45996,0
9.10020,9.10020,9.10020,0.00605,0.00605,0.00605,0.96713,11789.25586,11407.47461,0
9.20020,9.20020,9.20020,0.00595,0.00595,0.00595,0.96714,11789.25586,11407.55469,0
9.30020,9.30020,9.30020,0.00589,0.00589,0.00589,0.96714,11789.25586,11407.59473,0
9.40020,9.40020,9.40020,0.00584,0.00584,0.00584,0.96715,11789.25586,11407.63965,0
9.50019,9.50019,9.50019,0.00574,0.00574,0.00574,0.96715,11789.25586,11407.71289,0
9.60019,9.60019,9.60019,0.00568,0.00568,0.00568,0.96716,11789.25586,11407.75293,0
9.70019,9.70019,9.70019,0.00561,0.00561,0.00561,0.96716,11789.25586,11407.81738,0
9.80019,9.80019,9.80019,0.00556,0.00556,0.00556,0.96716,11789.25586,11407.85547,0
9.90019,9.90019,9.90019,0.00550,0.00550,0.00550,0.96717,11789.25586,11407.89746,0
10.00018,10.00018,10.00018,0.00542,0.00542,0.00542,0.96717,11789.25586,11407.95898,0
10.10018,10.10018,10.10018,0.00538,0.00538,0.00538,0.96718,11789.25586,11407.99512,0
10.20018,10.20018,10.20018,0.00528,0.00528,0.00528,0.96718,11789.25586,11408.06445,0
10.30018,10.30018,10.30018,0.00525,0.00525,0.00525,0.96718,11789.25586,11408.09473,0
10.40018,10.40018,10.40018,0.00522,0.00522,0.00522,0.96719,11789.25586,11408.12305,0
10.50017,10.50017,10.50017,0.00512,0.00512,0.00512,0.96719,11789.25586,11408.18848,0
10.60017,10.60017,10.60017,0.00510,0.00510,0.00510,0.96719,11789.25586,11408.21094,0
10.70017,10.70017,10.70017,0.00500,0.00500,0.00500,0.96720,11789.25586,11408.28516,0
10.80017,10.80017,10.80017,0.00497,0.00497,0.00497,0.96720,11789.25586,11408.31152,0
10.90017,10.90017,10.90017,0.00493,0.00493,0.00493,0.96721,11789.25586,11408.34082,0
11.00017,11.00017,11.00017,0.00488,0.00488,0.00488,0.96721,11789.25586,11408.38965,0
11.10016,11.10016,11.10016,0.00481,0.00481,0.00481,0.96721,11789.25586,11408.42773,0
11.20016,11.20016,11.20016,0.00475,0.00475,0.00475,0.96722,11789.25586,11408.47852,0
11.30016,11.30016,11.30016,0.00472,0.00472,0.00472,0.96722,11789.25586,11408.50391,0
11.40016,11.40016,11.40016,0.00468,0.00468,0.00468,0.96722,11789.25586,11408.53320,0
11.50016,11.50016,11.50016,0.00462,0.00462,0.00462,0.96723,11789.25586,11408.58203,0
11.60016,11.60016,11.60016,0.00459,0.00459,0.00459,0.96723,11789.25586,11408.60547,0
11.70015,11.70015,11.70015,0.00451,0.00451,0.00451,0.96723,11789.25586,11408.66504,0
11.80015,11.80015,11.80015,0.00449,0.00449,0.00449,0.96723,11789.25586,11408.68262,0
11.90015,11.90015,11.90015,0.00448,0.00448,0.00448,0.96724,11789.25586,11408.69922,0
12.00015,12.00015,12.00015,0.00437,0.00437,0.00437,0.96724,11789.25586,11408.76660,0
12.10015,12.10015,12.10015,0.00439,0.00439,0.00439,0.96724,11789.25586,11408.76367,0
12.20014,12.20014,12.20014,0.00428,0.00428,0.00428,0.96725,11789.25586,11408.83984,0
12.30014,12.30014,12.30014,0.00427,0.00427,0.00427,0.96725,11789.25586,11408.84766,0
12.40014,12.40014,12.40014,0.00426,0.00426,0.00426,0.96725,11789.25586,11408.86035,0
12.50014,12.50014,12.50014,0.00416,0.00416,0.00416,0.96726,11789.25586,11408.93262,0
12.60014,12.60014,12.60014,0.00416,0.00416,0.00416,0.96726,11789.25586,11408.93262,0
12.70014,12.70014,12.70014,0.00410,0.00410,0.00410,0.96726,11789.25586,11408.97852,0
12.80014,12.80014,12.80014,0.00407,0.00407,0.00407,0.96726,11789.25586,11409.00781,0
12.90014,12.90014,12.90014,0.00406,0.00406,0.00406,0.96726,11789.25586,11409.01562,0
13.00014,13.00014,13.00014,0.00398,0.00398,0.00398,0.96727,11789.25586,11409.07031,0
13.10013,13.10013,13.10013,0.00397,0.00397,0.00397,0.96727,11789.25586,11409.07910,0
13.20013,13.20013,13.20013,0.00392,0.00392,0.00392,0.96727,11789.25586,11409.13086,0
13.30013,13.30013,13.30013,0.00389,0.00389,0.00389,0.96727,11789.25586,11409.14258,0
13.40013,13.40013,13.40013,0.00390,0.00390,0.00390,0.96727,11789.25586,11409.14551,0
13.50013,13.50013,13.50013,0.00378,0.00378,0.00378,0.96728,11789.25586,11409.21875,0
13.60013,13.60013,13.60013,0.00380,0.00380,0.00380,0.96728,11789.25586,11409.21387,0
13.70013,13.70013,13.70013,0.00373,0.00373,0.00373,0.96728,11789.25586,11409.26270,0
13.80013,13.80013,13.80013,0.00372,0.00372,0.00372,0.96728,11789.25586,11409.27539,0
13.90013,13.90013,13.90013,0.00372,0.00372,0.00372,0.96729,11789.25586,11409.28418,0
14.00012,14.00012,14.00012,0.00363,0.00363,0.00363,0.96729,11789.25586,11409.33984,0
14.10012,14.10012,14.10012,0.00364,0.00364,0.00364,0.96729,11789.25586,11409.33887,0
14.20012,14.20012,14.20012,0.00357,0.00357,0.00357,0.96729,11789.25586,11409.38574,0
14.30012,14.30012,14.30012,0.00357,0.00357,0.00357,0.96730,11789.25586,11409.39551,0
14.40012,14.40012,14.40012,0.00354,0.00354,0.00354,0.96730,11789.25586,11409.41309,0
14.50012,14.50012,14.50012,0.00348,0.00348,0.00348,0.96730,11789.25586,11409.45605,0
14.60012,14.60012,14.60012,0.00349,0.00349,0.00349,0.96730,11789.25586,11409.45703,0
14.70012,14.70012,14.70012,0.00343,0.00343,0.00343,0.96730,11789.25586,11409.49902,0
14.80011,14.80011,14.80011,0.00341,0.00341,0.00341,0.96731,11789.25586,11409.51367,0
14.90012,14.90012,14.90012,0.00342,0.00342,0.00342,0.96731,11789.25586,11409.51562,0
15.00011,15.00011,15.00011,0.00333,0.00333,0.00333,0.96731,11789.25586,11409.57422,0
15.10011,15.10011,15.10011,0.00335,0.00335,0.00335,0.96731,11789.25586,11409.56445,0
15.20011,15.20011,15.20011,0.00328,0.00328,0.00328,0.96731,11789.25586,11409.61719,0
15.30011,15.30011,15.30011,0.00327,0.00327,0.00327,0.96731,11789.25586,11409.62305,0
15.40011,15.40011,15.40011,0.00327,0.00327,0.00327,0.96731,11789.25586,11409.62891,0
15.50011,15.50011,15.50011,0.00321,0.00321,0.00321,0.96732,11789.25586,11409.67285,0
15.60011,15.60011,15.60011,0.00322,0.00322,0.00322,0.96732,11789.25586,11409.66699,0
15.70011,15.70011,15.70011,0.00315,0.00315,0.00315,0.96732,11789.25586,11409.71484,0
15.80011,15.80011,15.80011,0.00315,0.00315,0.00315,0.96732,11789.25586,11409.71582,0
15.90011,15.90011,15.90011,0.00320,0.00320,0.00320,0.96732,11789.25586,11409.69434,0
16.00010,16.00010,16.00010,0.00301,0.00301,0.00301,0.96733,11789.25586,11409.80957,0
16.10010,16.10010,16.10010,0.00306,0.00306,0.00306,0.96733,11789.25586,11409.78711,0
16.20010,16.20010,16.20010,0.00305,0.00305,0.00305,0.96733,11789.25586,11409.79590,0
16.30010,16.30010,16.30010,0.00305,0.00305,0.00305,0.96733,11789.25586,11409.79492,0
16.40009,16.40009,16.40009,0.00297,0.00297,0.00297,0.96733,11789.25586,11409.85645,0
16.50009,16.50009,16.50009,0.00297,0.00297,0.00297,0.96733,11789.25586,11409.85547,0
16.60009,16.60009,16.60009,0.00295,0.00295,0.00295,0.96734,11789.25586,11409.87305,0
16.70009,16.70009,16.70009,0.00293,0.00293,0.00293,0.96734,11789.25586,11409.88574,0
16.80009,16.80009,16.80009,0.00296,0.00296,0.00296,0.96734,11789.25586,11409.87500,0
16.90009,16.90009,16.90009,0.00284,0.00284,0.00284,0.96734,11789.25586,11409.95508,0
17.00009,17.00009,17.00009,0.00286,0.00286,0.00286,0.96734,11789.25586,11409.94336,0
17.10009,17.10009,17.10009,0.00284,0.00284,0.00284,0.96734,11789.25586,11409.95801,0
17.20009,17.20009,17.20009,0.00283,0.00283,0.00283,0.96734,11789.25586,11409.96875,0
17.30009,17.30009,17.30009,0.00284,0.00284,0.00284,0.96734,11789.25586,11409.95898,0
17.40008,17.40008,17.40008,0.00273,0.00273,0.00273,0.96735,11789.25586,11410.03809,0
17.50008,17.50008,17.50008,0.00275,0.00275,0.00275,0.96735,11789.25586,11410.02637,0
17.60008,17.60008,17.60008,0.00273,0.00273,0.00273,0.96735,11789.25586,11410.03809,0
17.70008,17.70008,17.70008,0.00272,0.00272,0.00272,0.96735,11789.25586,11410.04980,0
17.80009,17.80009,17.80009,0.00274,0.00274,0.00274,0.96735,11789.25586,11410.03809,0
17.90008,17.90008,17.90008,0.00263,0.00263,0.00263,0.96736,11789.25586,11410.11523,0
18.00008,18.00008,18.00008,0.00265,0.00265,0.00265,0.96736,11789.25586,11410.10449,0
18.10008,18.10008,18.10008,0.00263,0.00263,0.00263,0.96736,11789.25586,11410.11719,0
18.20008,18.20008,18.20008,0.00262,0.00262,0.00262,0.96736,11789.25586,11410.12598,0
18.30008,18.30008,18.30008,0.00264,0.00264,0.00264,0.96736,11789.25586,11410.11621,0
18.40008,18.40008,18.40008,0.00253,0.00253,0.00253,0.96736,11789.25586,11410.19141,0
18.50008,18.50008,18.50008,0.00255,0.00255,0.00255,0.96736,11789.25586,11410.18066,0
18.60008,18.60008,18.60008,0.00254,0.00254,0.00254,0.96736,11789.25586,11410.19043,0
18.70008,18.70008,18.70008,0.00253,0.00253,0.00253,0.96736,11789.25586,11410.20117,0
18.80008,18.80008,18.80008,0.00255,0.00255,0.00255,0.96736,11789.25586,11410.18945,0
18.90008,18.90008,18.90008,0.00244,0.00244,0.00244,0.96737,11789.25586,11410.26074,0
19.00008,19.00008,19.00008,0.00246,0.00246,0.00246,0.96737,11789.25586,11410.25000,0
19.10008,19.10008,19.10008,0.00245,0.00245,0.00245,0.96737,11789.25586,11410.26074,0
19.20008,19.20008,19.20008,0.00244,0.00244,0.00244,0.96737,11789.25586,11410.27051,0
19.30008,19.30008,19.30008,0.00246,0.00246,0.00246,0.96737,11789.25586,11410.25781,0
19.40008,19.40008,19.40008,0.00234,0.00234,0.00234,0.96737,11789.25586,11410.33594,0
19.50008,19.50008,19.50008,0.00241,0.00241,0.00241,0.96737,11789.25586,11410.30371,0
19.60008,19.60008,19.60008,0.00235,0.00235,0.00235,0.96737,11789.25586,11410.33398,0
19.70008,19.70008,19.70008,0.00235,0.00235,0.00235,0.96738,11789.25586,11410.33887,0
19.80008,19.80008,19.80008,0.00237,0.00237,0.00237,0.96737,11789.25586,11410.32617,0
19.90007,19.90007,19.90007,0.00225,0.00225,0.00225,0.96738,11789.25586,11410.40137,0
20.00008,20.00008,20.00008,0.00232,0.00232,0.00232,0.96738,11789.25586,11410.36914,0
20.10007,20.10007,20.10007,0.00226,0.00226,0.00226,0.96738,11789.25586,11410.39648,0
20.20008,20.20008,20.20008,0.00227,0.00227,0.00227,0.96738,11789.25586,11410.40137,0
20.30008,20.30008,20.30008,0.00228,0.00228,0.00228,0.96738,11789.25586,11410.39355,0
20.40007,20.40007,20.40007,0.00221,0.00221,0.00221,0.96738,11789.25586,11410.44922,0
20.50007,20.50007,20.50007,0.00223,0.00223,0.00223,0.96738,11789.25586,11410.43750,0
20.60007,20.60007,20.60007,0.00218,0.00218,0.00218,0.96739,11789.25586,11410.45898,0
20.70007,20.70007,20.70007,0.00219,0.00219,0.00219,0.96739,11789.25586,11410.46094,0
20.80007,20.80007,20.80007,0.00221,0.00221,0.00221,0.96738,11789.25586,11410.44922,0
20.90007,20.90007,20.90007,0.00210,0.00210,0.00210,0.96739,11789.25586,11410.51660,0
21.00007,21.00007,21.00007,0.00217,0.00217,0.00217,0.96739,11789.25586,11410.49121,0
21.10007,21.10007,21.10007,0.00211,0.00211,0.00211,0.96739,11789.25586,11410.51172,0
21.20007,21.20007,21.20007,0.00211,0.00211,0.00211,0.96739,11789.25586,11410.51367,0
21.30007,21.30007,21.30007,0.00214,0.00214,0.00214,0.96739,11789.25586,11410.51172,0
21.40007,21.40007,21.40007,0.00203,0.00203,0.00203,0.96740,11789.25586,11410.58203,0
21.50007,21.50007,21.50007,0.00209,0.00209,0.00209,0.96739,11789.25586,11410.54688,0
21.60007,21.60007,21.60007,0.00204,0.00204,0.00204,0.96740,11789.25586,11410.57715,0
21.70007,21.70007,21.70007,0.00204,0.00204,0.00204,0.96740,11789.25586,11410.57715,0
21.80007,21.80007,21.80007,0.00207,0.00207,0.00207,0.96739,11789.25586,11410.55957,0
21.90007,21.90007,21.90007,0.00196,0.00196,0.00196,0.96740,11789.25586,11410.63770,0
22.00007,22.00007,22.00007,0.00202,0.00202,0.00202,0.96740,11789.25586,11410.59570,0
22.10007,22.10007,22.10007,0.00197,0.00197,0.00197,0.96740,11789.25586,11410.63281,0
22.20007,22.20007,22.20007,0.00198,0.00198,0.00198,0.96740,11789.25586,11410.63184,0
22.30007,22.30007,22.30007,0.00200,0.00200,0.00200,0.96740,11789.25586,11410.62207,0
22.40006,22.40006,22.40006,0.00190,0.00190,0.00190,0.96740,11789.25586,11410.67676,0
22.50006,22.50006,22.50006,0.00192,0.00192,0.00192,0.96740,11789.25586,11410.66211,0
22.60007,22.60007,22.60007,0.00192,0.00192,0.00192,0.96740,11789.25586,11410.66895,0
22.70007,22.70007,22.70007,0.00191,0.00191,0.00191,0.96740,11789.25586,11410.67480,0
22.80007,22.80007,22.80007,0.00193,0.00193,0.00193,0.96740,11789.25586,11410.66211,0
22.90006,22.90006,22.90006,0.00184,0.00184,0.00184,0.96741,11789.25586,11410.72559,0
23.00006,23.00006,23.00006,0.00186,0.00186,0.00186,0.96741,11789.25586,11410.71289,0
23.10006,23.10006,23.10006,0.00185,0.00185,0.00185,0.96741,11789.25586,11410.71875,0
23.20006,23.20006,23.20006,0.00185,0.00185,0.00185,0.96741,11789.25586,11410.72461,0
23.30006,23.30006,23.30006,0.00187,0.00187,0.00187,0.96741,11789.25586,11410.71191,0
23.40006,23.40006,23.40006,0.00178,0.00178,0.00178,0.96741,11789.25586,11410.77441,0
23.50006,23.50006,23.50006,0.00180,0.00180,0.00180,0.96741,11789.25586,11410.76172,0
23.60006,23.60006,23.60006,0.00179,0.00179,0.00179,0.96741,11789.25586,11410.76758,0
23.70006,23.70006,23.70006,0.00179,0.00179,0.00179,0.96741,11789.25586,11410.77246,0
