x,y,z,vx,vy,vz,temperature,density,pressure,is_star
0.09285,0.09285,0.09285,2.65786,2.65786,2.65786,0.79020,12022.77734,9505.15430,0
0.11698,0.11698,0.11698,-0.40382,-0.40382,-0.40382,0.91990,12022.77734,11065.25684,0
0.21608,0.21608,0.21608,0.27100,0.27100,0.27100,0.92157,11789.25586,10870.10449,0
0.31214,0.31214,0.31214,0.22049,0.22049,0.22049,0.92886,11789.25586,10956.01758,0
0.40968,0.40968,0.40968,0.18079,0.18079,0.18079,0.93344,11789.25586,11010.11133,0
0.50803,0.50803,0.50803,0.15209,0.15209,0.15209,0.93654,11789.25586,11046.59473,0
0.60685,0.60685,0.60685,0.13090,0.13090,0.13090,0.93875,11789.25586,11072.68848,0
0.70596,0.70596,0.70596,0.11465,0.11465,0.11465,0.94041,11789.25586,11092.28809,0
0.80528,0.80528,0.80528,0.10192,0.10192,0.10192,0.94170,11789.25586,11107.46484,0
0.90473,0.90473,0.90473,0.09167,0.09167,0.09167,0.94273,11789.25586,11119.58594,0
1.00429,1.00429,1.00429,0.08325,0.08325,0.08325,0.94356,11789.25586,11129.48438,0
1.10392,1.10392,1.10392,0.07619,0.07619,0.07619,0.94426,11789.25586,11137.72168,0
1.20361,1.20361,1.20361,0.07020,0.07020,0.07020,0.94485,11789.25586,11144.68652,0
1.30334,1.30334,1.30334,0.06514,0.06514,0.06514,0.94535,11789.25586,11150.59277,0
1.40311,1.40311,1.40311,0.06069,0.06069,0.06069,0.94579,11789.25586,11155.74902,0
1.50291,1.50291,1.50291,0.05674,0.05674,0.05674,0.94618,11789.25586,11160.28125,0
1.60273,1.60273,1.60273,0.05339,0.05339,0.05339,0.94651,11789.25586,11164.18652,0
1.70257,1.70257,1.70257,0.05033,0.05033,0.05033,0.94680,11789.25586,11167.70508,0
1.80243,1.80243,1.80243,0.04763,0.04763,0.04763,0.94707,11789.25586,11170.82812,0
1.90230,1.90230,1.90230,0.04507,0.04507,0.04507,0.94731,11789.25586,11173.72168,0
2.00219,2.00219,2.00219,0.04297,0.04297,0.04297,0.94752,11789.25586,11176.20020,0
2.10209,2.10209,2.10209,0.04093,0.04093,0.04093,0.94772,11789.25586,11178.51855,0
2.20200,2.20200,2.20200,0.03908,0.03908,0.03908,0.94790,11789.25586,11180.64453,0
2.30191,2.30191,2.30191,0.03739,0.03739,0.03739,0.94807,11789.25586,11182.58789,0
2.40183,2.40183,2.40183,0.03584,0.03584,0.03584,0.94822,11789.25586,11184.35840,0
2.50176,2.50176,2.50176,0.03444,0.03444,0.03444,0.94835,11789.25586,11185.98145,0
2.60169,2.60169,2.60169,0.03308,0.03308,0.03308,0.94848,11789.25586,11187.52344,0
2.70163,2.70163,2.70163,0.03188,0.03188,0.03188,0.94860,11789.25586,11188.91309,0
2.80157,2.80157,2.80157,0.03071,0.03071,0.03071,0.94871,11789.25586,11190.23828,0
2.90151,2.90151,2.90151,0.02968,0.02968,0.02968,0.94882,11789.25586,11191.43262,0
3.00146,3.00146,3.00146,0.02866,0.02866,0.02866,0.94891,11789.25586,11192.59277,0
3.10141,3.10141,3.10141,0.02773,0.02773,0.02773,0.94901,11789.25586,11193.66211,0
3.20137,3.20137,3.20137,0.02687,0.02687,0.02687,0.94909,11789.25586,11194.64746,0
3.30133,3.30133,3.30133,0.02599,0.02599,0.02599,0.94917,11789.25586,11195.62793,0
3.40129,3.40129,3.40129,0.02527,0.02527,0.02527,0.94924,11789.25586,11196.47559,0
3.50125,3.50125,3.50125,0.02449,0.02449,0.02449,0.94932,11789.25586,11197.35059,0
3.60122,3.60122,3.60122,0.02388,0.02388,0.02388,0.94938,11789.25586,11198.09863,0
3.70118,3.70118,3.70118,0.02308,0.02308,0.02308,0.94945,11789.25586,11198.94336,0
3.80115,3.80115,3.80115,0.02257,0.02257,0.02257,0.94951,11789.25586,11199.58105,0
3.90112,3.90112,3.90112,0.02200,0.02200,0.02200,0.94956,11789.25586,11200.23242,0
4.00109,4.00109,4.00109,0.02135,0.02135,0.02135,0.94962,11789.25586,11200.94824,0
4.10106,4.10106,4.10106,0.02081,0.02081,0.02081,0.94968,11789.25586,11201.56348,0
4.20104,4.20104,4.20104,0.02036,0.02036,0.02036,0.94972,11789.25586,11202.09668,0
4.30101,4.30101,4.30101,0.01986,0.01986,0.01986,0.94977,11789.25586,11202.66602,0
4.40099,4.40099,4.40099,0.01937,0.01937,0.01937,0.94982,11789.25586,11203.21973,0
4.50096,4.50096,4.50096,0.01894,0.01894,0.01894,0.94986,11789.25586,11203.71582,0
4.60094,4.60094,4.60094,0.01849,0.01849,0.01849,0.94990,11789.25586,11204.21875,0
4.70092,4.70092,4.70092,0.01813,0.01813,0.01813,0.94994,11789.25586,11204.66211,0
4.80090,4.80090,4.80090,0.01768,0.01768,0.01768,0.94998,11789.25586,11205.13477,0
4.90088,4.90088,4.90088,0.01734,0.01734,0.01734,0.95001,11789.25586,11205.54980,0
5.00086,5.00086,5.00086,0.01697,0.01697,0.01697,0.95005,11789.25586,11205.96680,0
5.10085,5.10085,5.10085,0.01660,0.01660,0.01660,0.95008,11789.25586,11206.37598,0
5.20083,5.20083,5.20083,0.01630,0.01630,0.01630,0.95011,11789.25586,11206.74023,0
5.30081,5.30081,5.30081,0.01595,0.01595,0.01595,0.95015,11789.25586,11207.12109,0
5.40080,5.40080,5.40080,0.01571,0.01571,0.01571,0.95017,11789.25586,11207.43457,0
5.50078,5.50078,5.50078,0.01525,0.01525,0.01525,0.95021,11789.25586,11207.88672,0
5.60077,5.60077,5.60077,0.01508,0.01508,0.01508,0.95023,11789.25586,11208.13574,0
5.70076,5.70076,5.70076,0.01482,0.01482,0.01482,0.95026,11789.25586,11208.43066,0
5.80074,5.80074,5.80074,0.01452,0.01452,0.01452,0.95029,11789.25586,11208.75879,0
5.90072,5.90072,5.90072,0.01423,0.01423,0.01423,0.95031,11789.25586,11209.08008,0
6.00071,6.00071,6.00071,0.01400,0.01400,0.01400,0.95034,11789.25586,11209.36133,0
6.10070,6.10070,6.10070,0.01373,0.01373,0.01373,0.95036,11789.25586,11209.65234,0
6.20069,6.20069,6.20069,0.01357,0.01357,0.01357,0.95038,11789.25586,11209.86426,0
6.30068,6.30068,6.30068,0.01328,0.01328,0.01328,0.95041,11789.25586,11210.17285,0
6.40066,6.40066,6.40066,0.01303,0.01303,0.01303,0.95043,11789.25586,11210.44531,0
6.50066,6.50066,6.50066,0.01289,0.01289,0.01289,0.95044,11789.25586,11210.64355,0
6.60064,6.60064,6.60064,0.01265,0.01265,0.01265,0.95047,11789.25586,11210.90039,0
6.70063,6.70063,6.70063,0.01244,0.01244,0.01244,0.95049,11789.25586,11211.13770,0
6.80062,6.80062,6.80062,0.01224,0.01224,0.01224,0.95051,11789.25586,11211.35547,0
6.90061,6.90061,6.90061,0.01207,0.01207,0.01207,0.95052,11789.25586,11211.57031,0
7.00060,7.00060,7.00060,0.01188,0.01188,0.01188,0.95054,11789.25586,11211.79102,0
7.10059,7.10059,7.10059,0.01161,0.01161,0.01161,0.95056,11789.25586,11212.04395,0
7.20059,7.20059,7.20059,0.01158,0.01158,0.01158,0.95057,11789.25586,11212.14844,0
7.30058,7.30058,7.30058,0.01144,0.01144,0.01144,0.95059,11789.25586,11212.31445,0
7.40056,7.40056,7.40056,0.01107,0.01107,0.01107,0.95062,11789.25586,11212.65820,0
7.50056,7.50056,7.50056,0.01104,0.01104,0.01104,0.95062,11789.25586,11212.75586,0
7.60055,7.60055,7.60055,0.01083,0.01083,0.01083,0.95064,11789.25586,11212.97168,0
7.70055,7.70055,7.70055,0.01072,0.01072,0.01072,0.95065,11789.25586,11213.10645,0
7.80054,7.80054,7.80054,0.01056,0.01056,0.01056,0.95067,11789.25586,11213.28223,0
7.90053,7.90053,7.90053,0.01046,0.01046,0.01046,0.95068,11789.25586,11213.42188,0
8.00052,8.00052,8.00052,0.01017,0.01017,0.01017,0.95070,11789.25586,11213.69531,0
8.10052,8.10052,8.10052,0.01017,0.01017,0.01017,0.95071,11789.25586,11213.74512,0
8.20051,8.20051,8.20051,0.00999,0.00999,0.00999,0.95072,11789.25586,11213.93848,0
8.30050,8.30050,8.30050,0.00983,0.00983,0.00983,0.95074,11789.25586,11214.10449,0
8.40050,8.40050,8.40050,0.00983,0.00983,0.00983,0.95074,11789.25586,11214.16504,0
8.50048,8.50048,8.50048,0.00949,0.00949,0.00949,0.95077,11789.25586,11214.45215,0
8.60048,8.60048,8.60048,0.00956,0.00956,0.00956,0.95077,11789.25586,11214.45996,0
8.70047,8.70047,8.70047,0.00928,0.00928,0.00928,0.95079,11789.25586,11214.71387,0
8.80047,8.80047,8.80047,0.00925,0.00925,0.00925,0.95080,11789.25586,11214.77734,0
8.90047,8.90047,8.90047,0.00927,0.00927,0.00927,0.95080,11789.25586,11214.81348,0
9.00045,9.00045,9.00045,0.00887,0.00887,0.00887,0.95083,11789.25586,11215.15723,0
9.10045,9.10045,9.10045,0.00896,0.00896,0.00896,0.95083,11789.25586,11215.14062,0
9.20045,9.20045,9.20045,0.00877,0.00877,0.00877,0.95084,11789.25586,11215.32812,0
9.30044,9.30044,9.30044,0.00870,0.00870,0.00870,0.95085,11789.25586,11215.41602,0
9.40044,9.40044,9.40044,0.00860,0.00860,0.00860,0.95086,11789.25586,11215.51758,0
9.50043,9.50043,9.50043,0.00848,0.00848,0.00848,0.95087,11789.25586,11215.66992,0
9.60043,9.60043,9.60043,0.00838,0.00838,0.00838,0.95088,11789.25586,11215.76758,0
9.70042,9.70042,9.70042,0.00826,0.00826,0.00826,0.95089,11789.25586,11215.90137,0
9.80042,9.80042,9.80042,0.00820,0.00820,0.00820,0.95090,11789.25586,11215.98340,0
9.90041,9.90041,9.90041,0.00812,0.00812,0.00812,0.95091,11789.25586,11216.07617,0
10.00041,10.00041,10.00041,0.00801,0.00801,0.00801,0.95092,11789.25586,11216.20410,0
10.10040,10.10040,10.10040,0.00795,0.00795,0.00795,0.95092,11789.25586,11216.27930,0
10.20039,10.20039,10.20039,0.00775,0.00775,0.00775,0.95094,11789.25586,11216.45703,0
10.30040,10.30040,10.30040,0.00775,0.00775,0.00775,0.95094,11789.25586,11216.49902,0
10.40039,10.40039,10.40039,0.00773,0.00773,0.00773,0.95095,11789.25586,11216.54590,0
10.50039,10.50039,10.50039,0.00754,0.00754,0.00754,0.95096,11789.25586,11216.71484,0
10.60038,10.60038,10.60038,0.00754,0.00754,0.00754,0.95096,11789.25586,11216.75000,0
10.70037,10.70037,10.70037,0.00734,0.00734,0.00734,0.95098,11789.25586,11216.92969,0
10.80037,10.80037,10.80037,0.00734,0.00734,0.00734,0.95098,11789.25586,11216.96973,0
10.90037,10.90037,10.90037,0.00726,0.00726,0.00726,0.95099,11789.25586,11217.04395,0
11.00037,11.00037,11.00037,0.00721,0.00721,0.00721,0.95099,11789.25586,11217.13086,0
11.10036,11.10036,11.10036,0.00708,0.00708,0.00708,0.95100,11789.25586,11217.24121,0
11.20036,11.20036,11.20036,0.00701,0.00701,0.00701,0.95101,11789.25586,11217.33887,0
11.30035,11.30035,11.30035,0.00698,0.00698,0.00698,0.95102,11789.25586,11217.38672,0
11.40035,11.40035,11.40035,0.00691,0.00691,0.00691,0.95102,11789.25586,11217.45508,0
11.50035,11.50035,11.50035,0.00680,0.00680,0.00680,0.95103,11789.25586,11217.57422,0
11.60035,11.60035,11.60035,0.00680,0.00680,0.00680,0.95104,11789.25586,11217.60645,0
11.70034,11.70034,11.70034,0.00662,0.00662,0.00662,0.95105,11789.25586,11217.75391,0
11.80034,11.80034,11.80034,0.00663,0.00663,0.00663,0.95105,11789.25586,11217.78516,0
11.90034,11.90034,11.90034,0.00663,0.00663,0.00663,0.95105,11789.25586,11217.80176,0
12.00033,12.00033,12.00033,0.00642,0.00642,0.00642,0.95107,11789.25586,11217.98047,0
12.10033,12.10033,12.10033,0.00651,0.00651,0.00651,0.95106,11789.25586,11217.94141,0
12.20032,12.20032,12.20032,0.00629,0.00629,0.00629,0.95108,11789.25586,11218.13770,0
12.30032,12.30032,12.30032,0.00629,0.00629,0.00629,0.95108,11789.25586,11218.15039,0
12.40032,12.40032,12.40032,0.00632,0.00632,0.00632,0.95108,11789.25586,11218.15625,0
12.50031,12.50031,12.50031,0.00610,0.00610,0.00610,0.95110,11789.25586,11218.34180,0
12.60031,12.60031,12.60031,0.00616,0.00616,0.00616,0.95110,11789.25586,11218.32422,0
12.70031,12.70031,12.70031,0.00604,0.00604,0.00604,0.95111,11789.25586,11218.43359,0
12.80031,12.80031,12.80031,0.00600,0.00600,0.00600,0.95111,11789.25586,11218.49023,0
12.90031,12.90031,12.90031,0.00602,0.00602,0.00602,0.95111,11789.25586,11218.49414,0
13.00030,13.00030,13.00030,0.00587,0.00587,0.00587,0.95112,11789.25586,11218.63477,0
13.10030,13.10030,13.10030,0.00585,0.00585,0.00585,0.95112,11789.25586,11218.65723,0
13.20029,13.20029,13.20029,0.00577,0.00577,0.00577,0.95113,11789.25586,11218.75195,0
13.30029,13.30029,13.30029,0.00574,0.00574,0.00574,0.95114,11789.25586,11218.78613,0
13.40029,13.40029,13.40029,0.00579,0.00579,0.00579,0.95113,11789.25586,11218.77148,0
13.50028,13.50028,13.50028,0.00554,0.00554,0.00554,0.95115,11789.25586,11218.97266,0
13.60029,13.60029,13.60029,0.00564,0.00564,0.00564,0.95115,11789.25586,11218.93066,0
13.70028,13.70028,13.70028,0.00549,0.00549,0.00549,0.95116,11789.25586,11219.05566,0
13.80028,13.80028,13.80028,0.00550,0.00550,0.00550,0.95116,11789.25586,11219.06934,0
13.90028,13.90028,13.90028,0.00550,0.00550,0.00550,0.95116,11789.25586,11219.08203,0
14.00027,14.00027,14.00027,0.00533,0.00533,0.00533,0.95117,11789.25586,11219.22852,0
14.10027,14.10027,14.10027,0.00539,0.00539,0.00539,0.95117,11789.25586,11219.20508,0
14.20027,14.20027,14.20027,0.00526,0.00526,0.00526,0.95118,11789.25586,11219.32129,0
14.30027,14.30027,14.30027,0.00528,0.00528,0.00528,0.95118,11789.25586,11219.32617,0
14.40027,14.40027,14.40027,0.00525,0.00525,0.00525,0.95118,11789.25586,11219.36719,0
14.50026,14.50026,14.50026,0.00511,0.00511,0.00511,0.95119,11789.25586,11219.47949,0
14.60026,14.60026,14.60026,0.00518,0.00518,0.00518,0.95119,11789.25586,11219.45312,0
14.70026,14.70026,14.70026,0.00505,0.00505,0.00505,0.95120,11789.25586,11219.56543,0
14.80026,14.80026,14.80026,0.00503,0.00503,0.00503,0.95120,11789.25586,11219.59961,0
14.90026,14.90026,14.90026,0.00507,0.00507,0.00507,0.95120,11789.25586,11219.58398,0
15.00025,15.00025,15.00025,0.00488,0.00488,0.00488,0.95122,11789.25586,11219.73926,0
15.10025,15.10025,15.10025,0.00498,0.00498,0.00498,0.95121,11789.25586,11219.68652,0
15.20024,15.20024,15.20024,0.00481,0.00481,0.00481,0.95122,11789.25586,11219.83105,0
15.30025,15.30025,15.30025,0.00483,0.00483,0.00483,0.95122,11789.25586,11219.83008,0
15.40025,15.40025,15.40025,0.00484,0.00484,0.00484,0.95122,11789.25586,11219.83496,0
15.50024,15.50024,15.50024,0.00472,0.00472,0.00472,0.95123,11789.25586,11219.94238,0
15.60024,15.60024,15.60024,0.00478,0.00478,0.00478,0.95123,11789.25586,11219.91406,0
15.70024,15.70024,15.70024,0.00461,0.00461,0.00461,0.95124,11789.25586,11220.04688,0
15.80024,15.80024,15.80024,0.00465,0.00465,0.00465,0.95124,11789.25586,11220.03223,0
15.90024,15.90024,15.90024,0.00477,0.00477,0.00477,0.95123,11789.25586,11219.95215,0
16.00022,16.00022,16.00022,0.00439,0.00439,0.00439,0.95126,11789.25586,11220.27148,0
16.10022,16.10022,16.10022,0.00452,0.00452,0.00452,0.95125,11789.25586,11220.18359,0
16.20022,16.20022,16.20022,0.00450,0.00450,0.00450,0.95126,11789.25586,11220.20703,0
16.30022,16.30022,16.30022,0.00453,0.00453,0.00453,0.95125,11789.25586,11220.19434,0
16.40022,16.40022,16.40022,0.00435,0.00435,0.00435,0.95127,11789.25586,11220.35156,0
16.50022,16.50022,16.50022,0.00438,0.00438,0.00438,0.95127,11789.25586,11220.33789,0
16.60022,16.60022,16.60022,0.00437,0.00437,0.00437,0.95127,11789.25586,11220.36523,0
16.70022,16.70022,16.70022,0.00431,0.00431,0.00431,0.95127,11789.25586,11220.40820,0
16.80022,16.80022,16.80022,0.00442,0.00442,0.00442,0.95127,11789.25586,11220.34863,0
16.90021,16.90021,16.90021,0.00414,0.00414,0.00414,0.95129,11789.25586,11220.57910,0
17.00021,17.00021,17.00021,0.00421,0.00421,0.00421,0.95128,11789.25586,11220.53418,0
17.10021,17.10021,17.10021,0.00419,0.00419,0.00419,0.95129,11789.25586,11220.55762,0
17.20021,17.20021,17.20021,0.00417,0.00417,0.00417,0.95129,11789.25586,11220.58203,0
17.30021,17.30021,17.30021,0.00424,0.00424,0.00424,0.95128,11789.25586,11220.54102,0
17.40020,17.40020,17.40020,0.00397,0.00397,0.00397,0.95130,11789.25586,11220.75781,0
17.50021,17.50021,17.50021,0.00407,0.00407,0.00407,0.95130,11789.25586,11220.70508,0
17.60020,17.60020,17.60020,0.00402,0.00402,0.00402,0.95130,11789.25586,11220.73926,0
17.70020,17.70020,17.70020,0.00401,0.00401,0.00401,0.95130,11789.25586,11220.76074,0
17.80021,17.80021,17.80021,0.00411,0.00411,0.00411,0.95130,11789.25586,11220.70801,0
17.90020,17.90020,17.90020,0.00381,0.00381,0.00381,0.95132,11789.25586,11220.92969,0
18.00020,18.00020,18.00020,0.00391,0.00391,0.00391,0.95131,11789.25586,11220.88086,0
18.10020,18.10020,18.10020,0.00390,0.00390,0.00390,0.95131,11789.25586,11220.90234,0
18.20020,18.20020,18.20020,0.00385,0.00385,0.00385,0.95132,11789.25586,11220.93066,0
18.30020,18.30020,18.30020,0.00394,0.00394,0.00394,0.95131,11789.25586,11220.88281,0
18.40019,18.40019,18.40019,0.00370,0.00370,0.00370,0.95133,11789.25586,11221.08594,0
18.50019,18.50019,18.50019,0.00376,0.00376,0.00376,0.95133,11789.25586,11221.04688,0
18.60019,18.60019,18.60019,0.00375,0.00375,0.00375,0.95133,11789.25586,11221.06348,0
18.70019,18.70019,18.70019,0.00371,0.00371,0.00371,0.95133,11789.25586,11221.09277,0
18.80019,18.80019,18.80019,0.00380,0.00380,0.00380,0.95133,11789.25586,11221.04590,0
18.90018,18.90018,18.90018,0.00356,0.00356,0.00356,0.95134,11789.25586,11221.23730,0
19.00018,19.00018,19.00018,0.00362,0.00362,0.00362,0.95134,11789.25586,11221.19922,0
19.10018,19.10018,19.10018,0.00361,0.00361,0.00361,0.95134,11789.25586,11221.22070,0
19.20018,19.20018,19.20018,0.00360,0.00360,0.00360,0.95134,11789.25586,11221.23926,0
19.30018,19.30018,19.30018,0.00366,0.00366,0.00366,0.95134,11789.25586,11221.20020,0
19.40017,19.40017,19.40017,0.00338,0.00338,0.00338,0.95136,11789.25586,11221.41602,0
19.50018,19.50018,19.50018,0.00360,0.00360,0.00360,0.95135,11789.25586,11221.28809,0
19.60017,19.60017,19.60017,0.00343,0.00343,0.00343,0.95136,11789.25586,11221.39258,0
19.70018,19.70018,19.70018,0.00347,0.00347,0.00347,0.95136,11789.25586,11221.38574,0
19.80018,19.80018,19.80018,0.00353,0.00353,0.00353,0.95135,11789.25586,11221.34961,0
19.90017,19.90017,19.90017,0.00327,0.00327,0.00327,0.95137,11789.25586,11221.55566,0
20.00017,20.00017,20.00017,0.00347,0.00347,0.00347,0.95136,11789.25586,11221.43164,0
20.10017,20.10017,20.10017,0.00332,0.00332,0.00332,0.95137,11789.25586,11221.52734,0
20.20017,20.20017,20.20017,0.00334,0.00334,0.00334,0.95137,11789.25586,11221.52539,0
20.30017,20.30017,20.30017,0.00338,0.00338,0.00338,0.95137,11789.25586,11221.50879,0
20.40016,20.40016,20.40016,0.00324,0.00324,0.00324,0.95138,11789.25586,11221.62793,0
20.50016,20.50016,20.50016,0.00331,0.00331,0.00331,0.95137,11789.25586,11221.58594,0
20.60016,20.60016,20.60016,0.00321,0.00321,0.00321,0.95138,11789.25586,11221.66016,0
20.70016,20.70016,20.70016,0.00323,0.00323,0.00323,0.95138,11789.25586,11221.65820,0
20.80016,20.80016,20.80016,0.00329,0.00329,0.00329,0.95138,11789.25586,11221.61816,0
20.90015,20.90015,20.90015,0.00305,0.00305,0.00305,0.95139,11789.25586,11221.80371,0
21.00016,21.00016,21.00016,0.00323,0.00323,0.00323,0.95138,11789.25586,11221.70605,0
21.10015,21.10015,21.10015,0.00310,0.00310,0.00310,0.95139,11789.25586,11221.78223,0
21.20015,21.20015,21.20015,0.00312,0.00312,0.00312,0.95139,11789.25586,11221.77734,0
21.30015,21.30015,21.30015,0.00318,0.00318,0.00318,0.95139,11789.25586,11221.75000,0
21.40014,21.40014,21.40014,0.00295,0.00295,0.00295,0.95140,11789.25586,11221.93164,0
21.50015,21.50015,21.50015,0.00311,0.00311,0.00311,0.95139,11789.25586,11221.82324,0
21.60014,21.60014,21.60014,0.00300,0.00300,0.00300,0.95140,11789.25586,11221.91016,0
21.70014,21.70014,21.70014,0.00301,0.00301,0.00301,0.95140,11789.25586,11221.90527,0
21.80015,21.80015,21.80015,0.00306,0.00306,0.00306,0.95140,11789.25586,11221.86328,0
21.90013,21.90013,21.90013,0.00286,0.00286,0.00286,0.95141,11789.25586,11222.04980,0
22.00014,22.00014,22.00014,0.00300,0.00300,0.00300,0.95140,11789.25586,11221.93848,0
22.10013,22.10013,22.10013,0.00290,0.00290,0.00290,0.95141,11789.25586,11222.02734,0
22.20013,22.20013,22.20013,0.00291,0.00291,0.00291,0.95141,11789.25586,11222.02148,0
22.30014,22.30014,22.30014,0.00296,0.00296,0.00296,0.95141,11789.25586,11221.98633,0
22.40013,22.40013,22.40013,0.00280,0.00280,0.00280,0.95142,11789.25586,11222.13477,0
22.50013,22.50013,22.50013,0.00284,0.00284,0.00284,0.95142,11789.25586,11222.09766,0
22.60013,22.60013,22.60013,0.00283,0.00283,0.00283,0.95142,11789.25586,11222.10938,0
22.70013,22.70013,22.70013,0.00282,0.00282,0.00282,0.95142,11789.25586,11222.12109,0
22.80013,22.80013,22.80013,0.00286,0.00286,0.00286,0.95142,11789.25586,11222.08594,0
22.90013,22.90013,22.90013,0.00270,0.00270,0.00270,0.95143,11789.25586,11222.24219,0
23.00013,23.00013,23.00013,0.00274,0.00274,0.00274,0.95143,11789.25586,11222.20508,0
23.10013,23.10013,23.10013,0.00274,0.00274,0.00274,0.95143,11789.25586,11222.21680,0
23.20013,23.20013,23.20013,0.00273,0.00273,0.00273,0.95143,11789.25586,11222.22852,0
23.30013,23.30013,23.30013,0.00277,0.00277,0.00277,0.95142,11789.25586,11222.19238,0
23.40012,23.40012,23.40012,0.00261,0.00261,0.00261,0.95144,11789.25586,11222.34668,0
23.50012,23.50012,23.50012,0.00265,0.00265,0.00265,0.95143,11789.25586,11222.31250,0
23.60012,23.60012,23.60012,0.00265,0.00265,0.00265,0.95144,11789.25586,11222.32227,0
23.70012,23.70012,23.70012,0.00264,0.00264,0.00264,0.95144,11789.25586,11222.33203,0
