x,y,z,vx,vy,vz,temperature,density,pressure,is_star
0.03871,0.03871,0.03871,1.19702,1.19702,1.19702,0.89449,11789.25586,10550.69629,0
0.11268,0.11268,0.11268,0.30414,0.30414,0.30414,0.94234,11789.25586,11115.10059,0
0.20825,0.20825,0.20825,0.22297,0.22297,0.22297,0.95074,11789.25586,11214.15625,0
0.30604,0.30604,0.30604,0.16732,0.16732,0.16732,0.95495,11789.25586,11263.77148,0
0.40476,0.40476,0.40476,0.13312,0.13312,0.13312,0.95741,11789.25586,11292.81738,0
0.50392,0.50392,0.50392,0.11027,0.11027,0.11027,0.95902,11789.25586,11311.81250,0
0.60333,0.60333,0.60333,0.09401,0.09401,0.09401,0.96016,11789.25586,11325.17578,0
0.70289,0.70289,0.70289,0.08185,0.08185,0.08185,0.96100,11789.25586,11335.09766,0
0.80255,0.80255,0.80255,0.07244,0.07244,0.07244,0.96164,11789.25586,11342.72754,0
0.90228,0.90228,0.90228,0.06494,0.06494,0.06494,0.96216,11789.25586,11348.78711,0
1.00207,1.00207,1.00207,0.05883,0.05883,0.05883,0.96258,11789.25586,11353.72070,0
1.10189,1.10189,1.10189,0.05376,0.05376,0.05376,0.96292,11789.25586,11357.80664,0
1.20173,1.20173,1.20173,0.04946,0.04946,0.04946,0.96321,11789.25586,11361.25195,0
1.30161,1.30161,1.30161,0.04582,0.04582,0.04582,0.96346,11789.25586,11364.17676,0
1.40149,1.40149,1.40149,0.04265,0.04265,0.04265,0.96368,11789.25586,11366.71875,0
1.50140,1.50140,1.50140,0.03986,0.03986,0.03986,0.96387,11789.25586,11368.94238,0
1.60131,1.60131,1.60131,0.03746,0.03746,0.03746,0.96403,11789.25586,11370.87207,0
1.70124,1.70124,1.70124,0.03530,0.03530,0.03530,0.96418,11789.25586,11372.60156,0
1.80117,1.80117,1.80117,0.03338,0.03338,0.03338,0.96431,11789.25586,11374.13770,0
1.90111,1.90111,1.90111,0.03161,0.03161,0.03161,0.96443,11789.25586,11375.54199,0
2.00105,2.00105,2.00105,0.03009,0.03009,0.03009,0.96453,11789.25586,11376.77441,0
2.10100,2.10100,2.10100,0.02866,0.02866,0.02866,0.96463,11789.25586,11377.90234,0
2.20096,2.20096,2.20096,0.02736,0.02736,0.02736,0.96471,11789.25586,11378.94531,0
2.30092,2.30092,2.30092,0.02617,0.02617,0.02617,0.96479,11789.25586,11379.89844,0
2.40088,2.40088,2.40088,0.02508,0.02508,0.02508,0.96487,11789.25586,11380.76172,0
2.50084,2.50084,2.50084,0.02409,0.02409,0.02409,0.96494,11789.25586,11381.55859,0
2.60081,2.60081,2.60081,0.02314,0.02314,0.02314,0.96500,11789.25586,11382.31055,0
2.70078,2.70078,2.70078,0.02229,0.02229,0.02229,0.96506,11789.25586,11382.99219,0
2.80075,2.80075,2.80075,0.02148,0.02148,0.02148,0.96511,11789.25586,11383.63477,0
2.90073,2.90073,2.90073,0.02074,0.02074,0.02074,0.96516,11789.25586,11384.22168,0
3.00070,3.00070,3.00070,0.02003,0.02003,0.02003,0.96521,11789.25586,11384.78809,0
3.10068,3.10068,3.10068,0.01938,0.01938,0.01938,0.96525,11789.25586,11385.31055,0
3.20066,3.20066,3.20066,0.01877,0.01877,0.01877,0.96529,11789.25586,11385.79297,0
3.30063,3.30063,3.30063,0.01817,0.01817,0.01817,0.96533,11789.25586,11386.26758,0
3.40062,3.40062,3.40062,0.01765,0.01765,0.01765,0.96537,11789.25586,11386.68555,0
3.50060,3.50060,3.50060,0.01712,0.01712,0.01712,0.96541,11789.25586,11387.10840,0
3.60058,3.60058,3.60058,0.01666,0.01666,0.01666,0.96544,11789.25586,11387.48438,0
3.70056,3.70056,3.70056,0.01615,0.01615,0.01615,0.96547,11789.25586,11387.87793,0
3.80055,3.80055,3.80055,0.01576,0.01576,0.01576,0.96550,11789.25586,11388.20312,0
3.90054,3.90054,3.90054,0.01535,0.01535,0.01535,0.96553,11789.25586,11388.52344,0
4.00052,4.00052,4.00052,0.01492,0.01492,0.01492,0.96555,11789.25586,11388.86523,0
4.10051,4.10051,4.10051,0.01454,0.01454,0.01454,0.96558,11789.25586,11389.16309,0
4.20050,4.20050,4.20050,0.01421,0.01421,0.01421,0.96560,11789.25586,11389.42578,0
4.30048,4.30048,4.30048,0.01387,0.01387,0.01387,0.96563,11789.25586,11389.70703,0
4.40047,4.40047,4.40047,0.01353,0.01353,0.01353,0.96565,11789.25586,11389.97363,0
4.50046,4.50046,4.50046,0.01322,0.01322,0.01322,0.96567,11789.25586,11390.21387,0
4.60045,4.60045,4.60045,0.01291,0.01291,0.01291,0.96569,11789.25586,11390.45898,0
4.70044,4.70044,4.70044,0.01264,0.01264,0.01264,0.96571,11789.25586,11390.68262,0
4.80043,4.80043,4.80043,0.01235,0.01235,0.01235,0.96573,11789.25586,11390.90430,0
4.90042,4.90042,4.90042,0.01210,0.01210,0.01210,0.96575,11789.25586,11391.11523,0
5.00041,5.00041,5.00041,0.01184,0.01184,0.01184,0.96576,11789.25586,11391.31348,0
5.10041,5.10041,5.10041,0.01160,0.01160,0.01160,0.96578,11789.25586,11391.51172,0
5.20040,5.20040,5.20040,0.01137,0.01137,0.01137,0.96579,11789.25586,11391.68945,0
5.30039,5.30039,5.30039,0.01114,0.01114,0.01114,0.96581,11789.25586,11391.87207,0
5.40038,5.40038,5.40038,0.01095,0.01095,0.01095,0.96582,11789.25586,11392.03418,0
5.50037,5.50037,5.50037,0.01067,0.01067,0.01067,0.96584,11789.25586,11392.23535,0
5.60037,5.60037,5.60037,0.01052,0.01052,0.01052,0.96585,11789.25586,11392.37305,0
5.70036,5.70036,5.70036,0.01034,0.01034,0.01034,0.96586,11789.25586,11392.51562,0
5.80035,5.80035,5.80035,0.01014,0.01014,0.01014,0.96588,11789.25586,11392.67383,0
5.90035,5.90035,5.90035,0.00994,0.00994,0.00994,0.96589,11789.25586,11392.82715,0
6.00034,6.00034,6.00034,0.00977,0.00977,0.00977,0.96590,11789.25586,11392.96973,0
6.10034,6.10034,6.10034,0.00959,0.00959,0.00959,0.96591,11789.25586,11393.10547,0
6.20033,6.20033,6.20033,0.00946,0.00946,0.00946,0.96592,11789.25586,11393.21777,0
6.30032,6.30032,6.30032,0.00927,0.00927,0.00927,0.96594,11789.25586,11393.35938,0
6.40032,6.40032,6.40032,0.00911,0.00911,0.00911,0.96595,11789.25586,11393.49219,0
6.50031,6.50031,6.50031,0.00898,0.00898,0.00898,0.96596,11789.25586,11393.59570,0
6.60031,6.60031,6.60031,0.00883,0.00883,0.00883,0.96597,11789.25586,11393.71582,0
6.70030,6.70030,6.70030,0.00868,0.00868,0.00868,0.96598,11789.25586,11393.83008,0
6.80030,6.80030,6.80030,0.00855,0.00855,0.00855,0.96598,11789.25586,11393.93652,0
6.90029,6.90029,6.90029,0.00842,0.00842,0.00842,0.96599,11789.25586,11394.04688,0
7.00029,7.00029,7.00029,0.00828,0.00828,0.00828,0.96600,11789.25586,11394.15430,0
7.10028,7.10028,7.10028,0.00813,0.00813,0.00813,0.96601,11789.25586,11394.26367,0
7.20028,7.20028,7.20028,0.00806,0.00806,0.00806,0.96602,11789.25586,11394.33008,0
7.30028,7.30028,7.30028,0.00796,0.00796,0.00796,0.96603,11789.25586,11394.41504,0
7.40027,7.40027,7.40027,0.00775,0.00775,0.00775,0.96604,11789.25586,11394.56055,0
7.50027,7.50027,7.50027,0.00769,0.00769,0.00769,0.96604,11789.25586,11394.62402,0
7.60026,7.60026,7.60026,0.00756,0.00756,0.00756,0.96605,11789.25586,11394.72168,0
7.70026,7.70026,7.70026,0.00748,0.00748,0.00748,0.96606,11789.25586,11394.79297,0
7.80026,7.80026,7.80026,0.00737,0.00737,0.00737,0.96606,11789.25586,11394.87500,0
7.90025,7.90025,7.90025,0.00728,0.00728,0.00728,0.96607,11789.25586,11394.95117,0
8.00025,8.00025,8.00025,0.00712,0.00712,0.00712,0.96608,11789.25586,11395.06250,0
8.10025,8.10025,8.10025,0.00709,0.00709,0.00709,0.96608,11789.25586,11395.10742,0
8.20024,8.20024,8.20024,0.00697,0.00697,0.00697,0.96609,11789.25586,11395.19824,0
8.30024,8.30024,8.30024,0.00687,0.00687,0.00687,0.96610,11789.25586,11395.27148,0
8.40024,8.40024,8.40024,0.00683,0.00683,0.00683,0.96610,11789.25586,11395.31738,0
8.50023,8.50023,8.50023,0.00666,0.00666,0.00666,0.96611,11789.25586,11395.43262,0
8.60023,8.60023,8.60023,0.00665,0.00665,0.00665,0.96611,11789.25586,11395.45996,0
8.70023,8.70023,8.70023,0.00649,0.00649,0.00649,0.96612,11789.25586,11395.56348,0
8.80023,8.80023,8.80023,0.00646,0.00646,0.00646,0.96613,11789.25586,11395.60449,0
8.90023,8.90023,8.90023,0.00643,0.00643,0.00643,0.96613,11789.25586,11395.63574,0
9.00022,9.00022,9.00022,0.00623,0.00623,0.00623,0.96614,11789.25586,11395.77344,0
9.10022,9.10022,9.10022,0.00623,0.00623,0.00623,0.96614,11789.25586,11395.78711,0
9.20021,9.20021,9.20021,0.00612,0.00612,0.00612,0.96615,11789.25586,11395.87207,0
9.30021,9.30021,9.30021,0.00606,0.00606,0.00606,0.96615,11789.25586,11395.91602,0
9.40021,9.40021,9.40021,0.00601,0.00601,0.00601,0.96616,11789.25586,11395.96387,0
9.50021,9.50021,9.50021,0.00591,0.00591,0.00591,0.96616,11789.25586,11396.04004,0
9.60020,9.60020,9.60020,0.00585,0.00585,0.00585,0.96617,11789.25586,11396.08203,0
9.70020,9.70020,9.70020,0.00577,0.00577,0.00577,0.96617,11789.25586,11396.15039,0
9.80020,9.80020,9.80020,0.00572,0.00572,0.00572,0.96618,11789.25586,11396.19141,0
9.90020,9.90020,9.90020,0.00566,0.00566,0.00566,0.96618,11789.25586,11396.23535,0
10.00020,10.00020,10.00020,0.00558,0.00558,0.00558,0.96618,11789.25586,11396.29980,0
10.10019,10.10019,10.10019,0.00554,0.00554,0.00554,0.96619,11789.25586,11396.33789,0
10.20019,10.20019,10.20019,0.00543,0.00543,0.00543,0.96619,11789.25586,11396.41211,0
10.30019,10.30019,10.30019,0.00540,0.00540,0.00540,0.96620,11789.25586,11396.44434,0
10.40019,10.40019,10.40019,0.00538,0.00538,0.00538,0.96620,11789.25586,11396.47266,0
10.50018,10.50018,10.50018,0.00527,0.00527,0.00527,0.96621,11789.25586,11396.54395,0
10.60018,10.60018,10.60018,0.00525,0.00525,0.00525,0.96621,11789.25586,11396.56738,0
10.70018,10.70018,10.70018,0.00514,0.00514,0.00514,0.96621,11789.25586,11396.64551,0
10.80018,10.80018,10.80018,0.00511,0.00511,0.00511,0.96622,11789.25586,11396.67383,0
10.90018,10.90018,10.90018,0.00507,0.00507,0.00507,0.96622,11789.25586,11396.70508,0
11.00018,11.00018,11.00018,0.00502,0.00502,0.00502,0.96622,11789.25586,11396.75586,0
11.10017,11.10017,11.10017,0.00495,0.00495,0.00495,0.96623,11789.25586,11396.79785,0
11.20017,11.20017,11.20017,0.00489,0.00489,0.00489,0.96623,11789.25586,11396.85059,0
11.30017,11.30017,11.30017,0.00486,0.00486,0.00486,0.96623,11789.25586,11396.87695,0
11.40017,11.40017,11.40017,0.00482,0.00482,0.00482,0.96624,11789.25586,11396.90918,0
11.50017,11.50017,11.50017,0.00475,0.00475,0.00475,0.96624,11789.25586,11396.96094,0
11.60017,11.60017,11.60017,0.00472,0.00472,0.00472,0.96624,11789.25586,11396.98633,0
11.70016,11.70016,11.70016,0.00464,0.00464,0.00464,0.96625,11789.25586,11397.04883,0
11.80016,11.80016,11.80016,0.00462,0.00462,0.00462,0.96625,11789.25586,11397.06738,0
11.90016,11.90016,11.90016,0.00461,0.00461,0.00461,0.96625,11789.25586,11397.08398,0
12.00016,12.00016,12.00016,0.00450,0.00450,0.00450,0.96626,11789.25586,11397.15625,0
12.10016,12.10016,12.10016,0.00452,0.00452,0.00452,0.96626,11789.25586,11397.15234,0
12.20015,12.20015,12.20015,0.00440,0.00440,0.00440,0.96626,11789.25586,11397.23438,0
12.30015,12.30015,12.30015,0.00439,0.00439,0.00439,0.96626,11789.25586,11397.24121,0
12.40015,12.40015,12.40015,0.00439,0.00439,0.00439,0.96627,11789.25586,11397.25488,0
12.50015,12.50015,12.50015,0.00428,0.00428,0.00428,0.96627,11789.25586,11397.33203,0
12.60015,12.60015,12.60015,0.00429,0.00429,0.00429,0.96627,11789.25586,11397.33301,0
12.70015,12.70015,12.70015,0.00422,0.00422,0.00422,0.96628,11789.25586,11397.38184,0
12.80015,12.80015,12.80015,0.00419,0.00419,0.00419,0.96628,11789.25586,11397.41211,0
12.90015,12.90015,12.90015,0.00418,0.00418,0.00418,0.96628,11789.25586,11397.41895,0
13.00014,13.00014,13.00014,0.00410,0.00410,0.00410,0.96628,11789.25586,11397.47949,0
13.10014,13.10014,13.10014,0.00408,0.00408,0.00408,0.96629,11789.25586,11397.48730,0
13.20014,13.20014,13.20014,0.00403,0.00403,0.00403,0.96629,11789.25586,11397.54102,0
13.30014,13.30014,13.30014,0.00401,0.00401,0.00401,0.96629,11789.25586,11397.55469,0
13.40014,13.40014,13.40014,0.00401,0.00401,0.00401,0.96629,11789.25586,11397.55664,0
13.50014,13.50014,13.50014,0.00389,0.00389,0.00389,0.96630,11789.25586,11397.63574,0
13.60014,13.60014,13.60014,0.00391,0.00391,0.00391,0.96630,11789.25586,11397.62988,0
13.70013,13.70013,13.70013,0.00384,0.00384,0.00384,0.96630,11789.25586,11397.68164,0
13.80013,13.80013,13.80013,0.00383,0.00383,0.00383,0.96630,11789.25586,11397.69531,0
13.90013,13.90013,13.90013,0.00383,0.00383,0.00383,0.96630,11789.25586,11397.70410,0
14.00013,14.00013,14.00013,0.00374,0.00374,0.00374,0.96631,11789.25586,11397.76270,0
14.10013,14.10013,14.10013,0.00375,0.00375,0.00375,0.96631,11789.25586,11397.76074,0
14.20013,14.20013,14.20013,0.00368,0.00368,0.00368,0.96631,11789.25586,11397.81152,0
14.30013,14.30013,14.30013,0.00368,0.00368,0.00368,0.96631,11789.25586,11397.82129,0
14.40013,14.40013,14.40013,0.00365,0.00365,0.00365,0.96632,11789.25586,11397.83984,0
14.50012,14.50012,14.50012,0.00358,0.00358,0.00358,0.96632,11789.25586,11397.88574,0
14.60013,14.60013,14.60013,0.00360,0.00360,0.00360,0.96632,11789.25586,11397.88672,0
14.70012,14.70012,14.70012,0.00353,0.00353,0.00353,0.96632,11789.25586,11397.93066,0
14.80012,14.80012,14.80012,0.00351,0.00351,0.00351,0.96632,11789.25586,11397.94727,0
14.90012,14.90012,14.90012,0.00352,0.00352,0.00352,0.96632,11789.25586,11397.94824,0
15.00012,15.00012,15.00012,0.00343,0.00343,0.00343,0.96633,11789.25586,11398.01172,0
15.10012,15.10012,15.10012,0.00345,0.00345,0.00345,0.96633,11789.25586,11398.00098,0
15.20012,15.20012,15.20012,0.00337,0.00337,0.00337,0.96633,11789.25586,11398.05664,0
15.30012,15.30012,15.30012,0.00337,0.00337,0.00337,0.96633,11789.25586,11398.06348,0
15.40012,15.40012,15.40012,0.00336,0.00336,0.00336,0.96633,11789.25586,11398.06836,0
15.50011,15.50011,15.50011,0.00330,0.00330,0.00330,0.96634,11789.25586,11398.11621,0
15.60011,15.60011,15.60011,0.00332,0.00332,0.00332,0.96634,11789.25586,11398.10938,0
15.70011,15.70011,15.70011,0.00324,0.00324,0.00324,0.96634,11789.25586,11398.16113,0
15.80011,15.80011,15.80011,0.00325,0.00325,0.00325,0.96634,11789.25586,11398.16113,0
15.90011,15.90011,15.90011,0.00330,0.00330,0.00330,0.96634,11789.25586,11398.13672,0
16.00010,16.00010,16.00010,0.00310,0.00310,0.00310,0.96635,11789.25586,11398.26172,0
16.10011,16.10011,16.10011,0.00315,0.00315,0.00315,0.96635,11789.25586,11398.23730,0
16.20011,16.20011,16.20011,0.00314,0.00314,0.00314,0.96635,11789.25586,11398.24609,0
16.30011,16.30011,16.30011,0.00314,0.00314,0.00314,0.96635,11789.25586,11398.24512,0
16.40010,16.40010,16.40010,0.00305,0.00305,0.00305,0.96636,11789.25586,11398.31055,0
16.50010,16.50010,16.50010,0.00306,0.00306,0.00306,0.96636,11789.25586,11398.30859,0
16.60010,16.60010,16.60010,0.00304,0.00304,0.00304,0.96636,11789.25586,11398.32812,0
16.70010,16.70010,16.70010,0.00302,0.00302,0.00302,0.96636,11789.25586,11398.34180,0
16.80010,16.80010,16.80010,0.00305,0.00305,0.00305,0.96636,11789.25586,11398.33008,0
16.90009,16.90009,16.90009,0.00292,0.00292,0.00292,0.96636,11789.25586,11398.41602,0
17.00009,17.00009,17.00009,0.00294,0.00294,0.00294,0.96636,11789.25586,11398.40332,0
17.10009,17.10009,17.10009,0.00292,0.00292,0.00292,0.96636,11789.25586,11398.41699,0
17.20009,17.20009,17.20009,0.00291,0.00291,0.00291,0.96637,11789.25586,11398.42969,0
17.30009,17.30009,17.30009,0.00293,0.00293,0.00293,0.96636,11789.25586,11398.41895,0
17.40009,17.40009,17.40009,0.00281,0.00281,0.00281,0.96637,11789.25586,11398.50293,0
17.50009,17.50009,17.50009,0.00283,0.00283,0.00283,0.96637,11789.25586,11398.49023,0
17.60009,17.60009,17.60009,0.00281,0.00281,0.00281,0.96637,11789.25586,11398.50293,0
17.70009,17.70009,17.70009,0.00280,0.00280,0.00280,0.96637,11789.25586,11398.51465,0
17.80009,17.80009,17.80009,0.00282,0.00282,0.00282,0.96637,11789.25586,11398.50195,0
17.90009,17.90009,17.90009,0.00270,0.00270,0.00270,0.96638,11789.25586,11398.58398,0
18.00009,18.00009,18.00009,0.00272,0.00272,0.00272,0.96638,11789.25586,11398.57422,0
18.10009,18.10009,18.10009,0.00271,0.00271,0.00271,0.96638,11789.25586,11398.58691,0
18.20009,18.20009,18.20009,0.00270,0.00270,0.00270,0.96638,11789.25586,11398.59668,0
18.30009,18.30009,18.30009,0.00272,0.00272,0.00272,0.96638,11789.25586,11398.58594,0
18.40008,18.40008,18.40008,0.00260,0.00260,0.00260,0.96639,11789.25586,11398.66602,0
18.50008,18.50008,18.50008,0.00263,0.00263,0.00263,0.96638,11789.25586,11398.65430,0
18.60008,18.60008,18.60008,0.00261,0.00261,0.00261,0.96639,11789.25586,11398.66406,0
18.70008,18.70008,18.70008,0.00260,0.00260,0.00260,0.96639,11789.25586,11398.67578,0
18.80009,18.80009,18.80009,0.00262,0.00262,0.00262,0.96639,11789.25586,11398.66309,0
18.90008,18.90008,18.90008,0.00251,0.00251,0.00251,0.96639,11789.25586,11398.74023,0
19.00008,19.00008,19.00008,0.00253,0.00253,0.00253,0.96639,11789.25586,11398.72754,0
19.10008,19.10008,19.10008,0.00252,0.00252,0.00252,0.96639,11789.25586,11398.73828,0
19.20008,19.20008,19.20008,0.00251,0.00251,0.00251,0.96639,11789.25586,11398.75000,0
19.30008,19.30008,19.30008,0.00253,0.00253,0.00253,0.96639,11789.25586,11398.73535,0
19.40008,19.40008,19.40008,0.00240,0.00240,0.00240,0.96640,11789.25586,11398.82031,0
19.50008,19.50008,19.50008,0.00248,0.00248,0.00248,0.96640,11789.25586,11398.78516,0
19.60008,19.60008,19.60008,0.00242,0.00242,0.00242,0.96640,11789.25586,11398.81738,0
19.70008,19.70008,19.70008,0.00242,0.00242,0.00242,0.96640,11789.25586,11398.82129,0
19.80008,19.80008,19.80008,0.00244,0.00244,0.00244,0.96640,11789.25586,11398.80762,0
19.90008,19.90008,19.90008,0.00232,0.00232,0.00232,0.96640,11789.25586,11398.88965,0
20.00008,20.00008,20.00008,0.00239,0.00239,0.00239,0.96640,11789.25586,11398.85254,0
20.10008,20.10008,20.10008,0.00233,0.00233,0.00233,0.96640,11789.25586,11398.88281,0
20.20008,20.20008,20.20008,0.00233,0.00233,0.00233,0.96640,11789.25586,11398.88770,0
20.30008,20.30008,20.30008,0.00234,0.00234,0.00234,0.96640,11789.25586,11398.87988,0
20.40008,20.40008,20.40008,0.00227,0.00227,0.00227,0.96641,11789.25586,11398.93750,0
20.50008,20.50008,20.50008,0.00229,0.00229,0.00229,0.96641,11789.25586,11398.92578,0
20.60008,20.60008,20.60008,0.00225,0.00225,0.00225,0.96641,11789.25586,11398.94922,0
20.70008,20.70008,20.70008,0.00225,0.00225,0.00225,0.96641,11789.25586,11398.95117,0
20.80008,20.80008,20.80008,0.00228,0.00228,0.00228,0.96641,11789.25586,11398.93750,0
20.90007,20.90007,20.90007,0.00216,0.00216,0.00216,0.96641,11789.25586,11399.01172,0
21.00008,21.00008,21.00008,0.00223,0.00223,0.00223,0.96641,11789.25586,11398.98242,0
21.10007,21.10007,21.10007,0.00217,0.00217,0.00217,0.96641,11789.25586,11399.00488,0
21.20008,21.20008,21.20008,0.00218,0.00218,0.00218,0.96641,11789.25586,11399.00781,0
21.30008,21.30008,21.30008,0.00220,0.00220,0.00220,0.96641,11789.25586,11399.00586,0
21.40007,21.40007,21.40007,0.00208,0.00208,0.00208,0.96642,11789.25586,11399.07910,0
21.50007,21.50007,21.50007,0.00215,0.00215,0.00215,0.96642,11789.25586,11399.04004,0
21.60007,21.60007,21.60007,0.00210,0.00210,0.00210,0.96642,11789.25586,11399.07422,0
21.70007,21.70007,21.70007,0.00210,0.00210,0.00210,0.96642,11789.25586,11399.07422,0
21.80007,21.80007,21.80007,0.00213,0.00213,0.00213,0.96642,11789.25586,11399.05469,0
21.90007,21.90007,21.90007,0.00201,0.00201,0.00201,0.96643,11789.25586,11399.13867,0
22.00007,22.00007,22.00007,0.00208,0.00208,0.00208,0.96642,11789.25586,11399.09277,0
22.10007,22.10007,22.10007,0.00203,0.00203,0.00203,0.96643,11789.25586,11399.13281,0
22.20007,22.20007,22.20007,0.00203,0.00203,0.00203,0.96643,11789.25586,11399.13184,0
22.30007,22.30007,22.30007,0.00206,0.00206,0.00206,0.96642,11789.25586,11399.12109,0
22.40007,22.40007,22.40007,0.00196,0.00196,0.00196,0.96643,11789.25586,11399.17871,0
22.50007,22.50007,22.50007,0.00198,0.00198,0.00198,0.96643,11789.25586,11399.16406,0
22.60007,22.60007,22.60007,0.00197,0.00197,0.00197,0.96643,11789.25586,11399.17090,0
22.70007,22.70007,22.70007,0.00197,0.00197,0.00197,0.96643,11789.25586,11399.17676,0
22.80007,22.80007,22.80007,0.00199,0.00199,0.00199,0.96643,11789.25586,11399.16309,0
22.90007,22.90007,22.90007,0.00189,0.00189,0.00189,0.96643,11789.25586,11399.23047,0
23.00007,23.00007,23.00007,0.00191,0.00191,0.00191,0.96643,11789.25586,11399.21777,0
23.10007,23.10007,23.10007,0.00191,0.00191,0.00191,0.96643,11789.25586,11399.22363,0
23.20007,23.20007,23.20007,0.00190,0.00190,0.00190,0.96643,11789.25586,11399.22852,0
23.30007,23.30007,23.30007,0.00193,0.00193,0.00193,0.96643,11789.25586,11399.21484,0
23.40006,23.40006,23.40006,0.00183,0.00183,0.00183,0.96644,11789.25586,11399.28320,0
23.50006,23.50006,23.50006,0.00185,0.00185,0.00185,0.96644,11789.25586,11399.26953,0
23.60007,23.60007,23.60007,0.00185,0.00185,0.00185,0.96644,11789.25586,11399.27539,0
23.70007,23.70007,23.70007,0.00184,0.00184,0.00184,0.96644,11789.25586,11399.28027,0
