x,y,z,vx,vy,vz,temperature,density,pressure,is_star
0.02486,0.02486,0.02486,0.91880,0.91880,0.91880,0.92564,11789.25586,10918.09961,0
0.10879,0.10879,0.10879,0.28631,0.28631,0.28631,0.95592,11789.25586,11275.19336,0
0.20554,0.20554,0.20554,0.18926,0.18926,0.18926,0.96214,11789.25586,11348.57031,0
0.30403,0.30403,0.30403,0.13949,0.13949,0.13949,0.96506,11789.25586,11382.99219,0
0.40316,0.40316,0.40316,0.11011,0.11011,0.11011,0.96674,11789.25586,11402.81738,0
0.50260,0.50260,0.50260,0.09082,0.09082,0.09082,0.96783,11789.25586,11415.68359,0
0.60220,0.60220,0.60220,0.07722,0.07722,0.07722,0.96859,11789.25586,11424.69141,0
0.70191,0.70191,0.70191,0.06710,0.06710,0.06710,0.96916,11789.25586,11431.35645,0
0.80169,0.80169,0.80169,0.05931,0.05931,0.05931,0.96959,11789.25586,11436.47070,0
0.90151,0.90151,0.90151,0.05312,0.05312,0.05312,0.96993,11789.25586,11440.52637,0
1.00137,1.00137,1.00137,0.04809,0.04809,0.04809,0.97021,11789.25586,11443.82422,0
1.10125,1.10125,1.10125,0.04391,0.04391,0.04391,0.97045,11789.25586,11446.55273,0
1.20114,1.20114,1.20114,0.04039,0.04039,0.04039,0.97064,11789.25586,11448.85156,0
1.30106,1.30106,1.30106,0.03740,0.03740,0.03740,0.97081,11789.25586,11450.80176,0
1.40099,1.40099,1.40099,0.03480,0.03480,0.03480,0.97095,11789.25586,11452.49609,0
1.50092,1.50092,1.50092,0.03252,0.03252,0.03252,0.97107,11789.25586,11453.97656,0
1.60087,1.60087,1.60087,0.03055,0.03055,0.03055,0.97118,11789.25586,11455.26270,0
1.70082,1.70082,1.70082,0.02879,0.02879,0.02879,0.97128,11789.25586,11456.41504,0
1.80077,1.80077,1.80077,0.02722,0.02722,0.02722,0.97137,11789.25586,11457.43945,0
1.90073,1.90073,1.90073,0.02577,0.02577,0.02577,0.97145,11789.25586,11458.36914,0
2.00069,2.00069,2.00069,0.02452,0.02452,0.02452,0.97152,11789.25586,11459.19238,0
2.10066,2.10066,2.10066,0.02336,0.02336,0.02336,0.97158,11789.25586,11459.94141,0
2.20063,2.20063,2.20063,0.02230,0.02230,0.02230,0.97164,11789.25586,11460.63477,0
2.30060,2.30060,2.30060,0.02132,0.02132,0.02132,0.97169,11789.25586,11461.26855,0
2.40058,2.40058,2.40058,0.02044,0.02044,0.02044,0.97174,11789.25586,11461.84277,0
2.50056,2.50056,2.50056,0.01963,0.01963,0.01963,0.97179,11789.25586,11462.37402,0
2.60053,2.60053,2.60053,0.01885,0.01885,0.01885,0.97183,11789.25586,11462.87207,0
2.70051,2.70051,2.70051,0.01816,0.01816,0.01816,0.97187,11789.25586,11463.32324,0
2.80050,2.80050,2.80050,0.01750,0.01750,0.01750,0.97190,11789.25586,11463.75195,0
2.90048,2.90048,2.90048,0.01690,0.01690,0.01690,0.97194,11789.25586,11464.14258,0
3.00046,3.00046,3.00046,0.01632,0.01632,0.01632,0.97197,11789.25586,11464.51758,0
3.10045,3.10045,3.10045,0.01579,0.01579,0.01579,0.97200,11789.25586,11464.86523,0
3.20043,3.20043,3.20043,0.01529,0.01529,0.01529,0.97203,11789.25586,11465.18652,0
3.30042,3.30042,3.30042,0.01480,0.01480,0.01480,0.97205,11789.25586,11465.50098,0
3.40041,3.40041,3.40041,0.01438,0.01438,0.01438,0.97208,11789.25586,11465.78125,0
3.50039,3.50039,3.50039,0.01394,0.01394,0.01394,0.97210,11789.25586,11466.05859,0
3.60038,3.60038,3.60038,0.01356,0.01356,0.01356,0.97212,11789.25586,11466.31055,0
3.70037,3.70037,3.70037,0.01316,0.01316,0.01316,0.97214,11789.25586,11466.56934,0
3.80036,3.80036,3.80036,0.01283,0.01283,0.01283,0.97216,11789.25586,11466.78809,0
3.90035,3.90035,3.90035,0.01250,0.01250,0.01250,0.97218,11789.25586,11467.00000,0
4.00034,4.00034,4.00034,0.01215,0.01215,0.01215,0.97220,11789.25586,11467.22754,0
4.10033,4.10033,4.10033,0.01184,0.01184,0.01184,0.97221,11789.25586,11467.42285,0
4.20033,4.20033,4.20033,0.01157,0.01157,0.01157,0.97223,11789.25586,11467.60059,0
4.30032,4.30032,4.30032,0.01129,0.01129,0.01129,0.97225,11789.25586,11467.78809,0
4.40031,4.40031,4.40031,0.01102,0.01102,0.01102,0.97226,11789.25586,11467.96387,0
4.50030,4.50030,4.50030,0.01076,0.01076,0.01076,0.97227,11789.25586,11468.12207,0
4.60030,4.60030,4.60030,0.01052,0.01052,0.01052,0.97229,11789.25586,11468.28516,0
4.70029,4.70029,4.70029,0.01029,0.01029,0.01029,0.97230,11789.25586,11468.43555,0
4.80028,4.80028,4.80028,0.01006,0.01006,0.01006,0.97231,11789.25586,11468.58008,0
4.90028,4.90028,4.90028,0.00985,0.00985,0.00985,0.97232,11789.25586,11468.72266,0
5.00027,5.00027,5.00027,0.00964,0.00964,0.00964,0.97234,11789.25586,11468.85352,0
5.10027,5.10027,5.10027,0.00944,0.00944,0.00944,0.97235,11789.25586,11468.98438,0
5.20026,5.20026,5.20026,0.00926,0.00926,0.00926,0.97236,11789.25586,11469.10254,0
5.30026,5.30026,5.30026,0.00907,0.00907,0.00907,0.97237,11789.25586,11469.22559,0
5.40025,5.40025,5.40025,0.00891,0.00891,0.00891,0.97238,11789.25586,11469.33301,0
5.50024,5.50024,5.50024,0.00869,0.00869,0.00869,0.97239,11789.25586,11469.46191,0
5.60024,5.60024,5.60024,0.00856,0.00856,0.00856,0.97240,11789.25586,11469.55762,0
5.70024,5.70024,5.70024,0.00841,0.00841,0.00841,0.97240,11789.25586,11469.65137,0
5.80023,5.80023,5.80023,0.00825,0.00825,0.00825,0.97241,11789.25586,11469.75586,0
5.90023,5.90023,5.90023,0.00810,0.00810,0.00810,0.97242,11789.25586,11469.85840,0
6.00023,6.00023,6.00023,0.00795,0.00795,0.00795,0.97243,11789.25586,11469.95410,0
6.10022,6.10022,6.10022,0.00781,0.00781,0.00781,0.97244,11789.25586,11470.04199,0
6.20022,6.20022,6.20022,0.00770,0.00770,0.00770,0.97244,11789.25586,11470.11816,0
6.30021,6.30021,6.30021,0.00755,0.00755,0.00755,0.97245,11789.25586,11470.21094,0
6.40021,6.40021,6.40021,0.00742,0.00742,0.00742,0.97246,11789.25586,11470.29980,0
6.50021,6.50021,6.50021,0.00731,0.00731,0.00731,0.97246,11789.25586,11470.36816,0
6.60020,6.60020,6.60020,0.00719,0.00719,0.00719,0.97247,11789.25586,11470.45020,0
6.70020,6.70020,6.70020,0.00707,0.00707,0.00707,0.97248,11789.25586,11470.52246,0
6.80020,6.80020,6.80020,0.00696,0.00696,0.00696,0.97248,11789.25586,11470.59277,0
6.90019,6.90019,6.90019,0.00685,0.00685,0.00685,0.97249,11789.25586,11470.66992,0
7.00019,7.00019,7.00019,0.00674,0.00674,0.00674,0.97250,11789.25586,11470.73926,0
7.10019,7.10019,7.10019,0.00662,0.00662,0.00662,0.97250,11789.25586,11470.80762,0
7.20019,7.20019,7.20019,0.00656,0.00656,0.00656,0.97251,11789.25586,11470.85645,0
7.30018,7.30018,7.30018,0.00648,0.00648,0.00648,0.97251,11789.25586,11470.91406,0
7.40018,7.40018,7.40018,0.00632,0.00632,0.00632,0.97252,11789.25586,11471.00586,0
7.50018,7.50018,7.50018,0.00626,0.00626,0.00626,0.97252,11789.25586,11471.05176,0
7.60017,7.60017,7.60017,0.00616,0.00616,0.00616,0.97253,11789.25586,11471.11523,0
7.70017,7.70017,7.70017,0.00609,0.00609,0.00609,0.97253,11789.25586,11471.16406,0
7.80017,7.80017,7.80017,0.00600,0.00600,0.00600,0.97254,11789.25586,11471.21875,0
7.90017,7.90017,7.90017,0.00593,0.00593,0.00593,0.97254,11789.25586,11471.26953,0
8.00016,8.00016,8.00016,0.00580,0.00580,0.00580,0.97255,11789.25586,11471.33887,0
8.10016,8.10016,8.10016,0.00577,0.00577,0.00577,0.97255,11789.25586,11471.37402,0
8.20016,8.20016,8.20016,0.00567,0.00567,0.00567,0.97255,11789.25586,11471.43262,0
8.30016,8.30016,8.30016,0.00559,0.00559,0.00559,0.97256,11789.25586,11471.47949,0
8.40016,8.40016,8.40016,0.00555,0.00555,0.00555,0.97256,11789.25586,11471.51465,0
8.50015,8.50015,8.50015,0.00543,0.00543,0.00543,0.97257,11789.25586,11471.58496,0
8.60015,8.60015,8.60015,0.00541,0.00541,0.00541,0.97257,11789.25586,11471.60840,0
8.70015,8.70015,8.70015,0.00529,0.00529,0.00529,0.97258,11789.25586,11471.67285,0
8.80015,8.80015,8.80015,0.00525,0.00525,0.00525,0.97258,11789.25586,11471.70215,0
8.90015,8.90015,8.90015,0.00523,0.00523,0.00523,0.97258,11789.25586,11471.72656,0
9.00014,9.00014,9.00014,0.00508,0.00508,0.00508,0.97259,11789.25586,11471.81055,0
9.10014,9.10014,9.10014,0.00507,0.00507,0.00507,0.97259,11789.25586,11471.82324,0
9.20014,9.20014,9.20014,0.00498,0.00498,0.00498,0.97259,11789.25586,11471.88086,0
9.30014,9.30014,9.30014,0.00494,0.00494,0.00494,0.97260,11789.25586,11471.90820,0
9.40014,9.40014,9.40014,0.00489,0.00489,0.00489,0.97260,11789.25586,11471.94043,0
9.50014,9.50014,9.50014,0.00481,0.00481,0.00481,0.97260,11789.25586,11471.99121,0
9.60013,9.60013,9.60013,0.00476,0.00476,0.00476,0.97260,11789.25586,11472.01660,0
9.70013,9.70013,9.70013,0.00470,0.00470,0.00470,0.97261,11789.25586,11472.06348,0
9.80013,9.80013,9.80013,0.00466,0.00466,0.00466,0.97261,11789.25586,11472.09180,0
9.90013,9.90013,9.90013,0.00461,0.00461,0.00461,0.97261,11789.25586,11472.12012,0
10.00013,10.00013,10.00013,0.00454,0.00454,0.00454,0.97262,11789.25586,11472.16406,0
10.10013,10.10013,10.10013,0.00451,0.00451,0.00451,0.97262,11789.25586,11472.18848,0
10.20012,10.20012,10.20012,0.00443,0.00443,0.00443,0.97262,11789.25586,11472.23438,0
10.30012,10.30012,10.30012,0.00440,0.00440,0.00440,0.97262,11789.25586,11472.25879,0
10.40012,10.40012,10.40012,0.00437,0.00437,0.00437,0.97263,11789.25586,11472.28027,0
10.50012,10.50012,10.50012,0.00429,0.00429,0.00429,0.97263,11789.25586,11472.32422,0
10.60012,10.60012,10.60012,0.00427,0.00427,0.00427,0.97263,11789.25586,11472.33984,0
10.70012,10.70012,10.70012,0.00419,0.00419,0.00419,0.97264,11789.25586,11472.39160,0
10.80012,10.80012,10.80012,0.00416,0.00416,0.00416,0.97264,11789.25586,11472.41211,0
10.90012,10.90012,10.90012,0.00413,0.00413,0.00413,0.97264,11789.25586,11472.43164,0
11.00012,11.00012,11.00012,0.00408,0.00408,0.00408,0.97264,11789.25586,11472.46875,0
11.10011,11.10011,11.10011,0.00403,0.00403,0.00403,0.97264,11789.25586,11472.49121,0
11.20011,11.20011,11.20011,0.00398,0.00398,0.00398,0.97265,11789.25586,11472.52930,0
11.30011,11.30011,11.30011,0.00396,0.00396,0.00396,0.97265,11789.25586,11472.54688,0
11.40011,11.40011,11.40011,0.00392,0.00392,0.00392,0.97265,11789.25586,11472.56738,0
11.50011,11.50011,11.50011,0.00387,0.00387,0.00387,0.97265,11789.25586,11472.60254,0
11.60011,11.60011,11.60011,0.00384,0.00384,0.00384,0.97266,11789.25586,11472.61914,0
11.70011,11.70011,11.70011,0.00378,0.00378,0.00378,0.97266,11789.25586,11472.65820,0
11.80011,11.80011,11.80011,0.00376,0.00376,0.00376,0.97266,11789.25586,11472.67188,0
11.90011,11.90011,11.90011,0.00375,0.00375,0.00375,0.97266,11789.25586,11472.68457,0
12.00010,12.00010,12.00010,0.00367,0.00367,0.00367,0.97266,11789.25586,11472.72949,0
12.10010,12.10010,12.10010,0.00367,0.00367,0.00367,0.97266,11789.25586,11472.72949,0
12.20010,12.20010,12.20010,0.00359,0.00359,0.00359,0.97267,11789.25586,11472.78125,0
12.30010,12.30010,12.30010,0.00358,0.00358,0.00358,0.97267,11789.25586,11472.78809,0
12.40010,12.40010,12.40010,0.00357,0.00357,0.00357,0.97267,11789.25586,11472.80078,0
12.50010,12.50010,12.50010,0.00349,0.00349,0.00349,0.97267,11789.25586,11472.84766,0
12.60010,12.60010,12.60010,0.00349,0.00349,0.00349,0.97267,11789.25586,11472.84961,0
12.70010,12.70010,12.70010,0.00344,0.00344,0.00344,0.97268,11789.25586,11472.87988,0
12.80010,12.80010,12.80010,0.00341,0.00341,0.00341,0.97268,11789.25586,11472.90234,0
12.90010,12.90010,12.90010,0.00340,0.00340,0.00340,0.97268,11789.25586,11472.90820,0
13.00009,13.00009,13.00009,0.00334,0.00334,0.00334,0.97268,11789.25586,11472.94629,0
13.10009,13.10009,13.10009,0.00333,0.00333,0.00333,0.97268,11789.25586,11472.95020,0
13.20009,13.20009,13.20009,0.00328,0.00328,0.00328,0.97269,11789.25586,11472.98926,0
13.30009,13.30009,13.30009,0.00326,0.00326,0.00326,0.97269,11789.25586,11472.99707,0
13.40009,13.40009,13.40009,0.00326,0.00326,0.00326,0.97269,11789.25586,11473.00000,0
13.50009,13.50009,13.50009,0.00317,0.00317,0.00317,0.97269,11789.25586,11473.04785,0
13.60009,13.60009,13.60009,0.00318,0.00318,0.00318,0.97269,11789.25586,11473.04688,0
13.70009,13.70009,13.70009,0.00313,0.00313,0.00313,0.97269,11789.25586,11473.07910,0
13.80009,13.80009,13.80009,0.00312,0.00312,0.00312,0.97270,11789.25586,11473.08887,0
13.90009,13.90009,13.90009,0.00311,0.00311,0.00311,0.97270,11789.25586,11473.09570,0
14.00009,14.00009,14.00009,0.00305,0.00305,0.00305,0.97270,11789.25586,11473.13379,0
14.10009,14.10009,14.10009,0.00305,0.00305,0.00305,0.97270,11789.25586,11473.13379,0
14.20008,14.20008,14.20008,0.00300,0.00300,0.00300,0.97270,11789.25586,11473.16602,0
14.30009,14.30009,14.30009,0.00299,0.00299,0.00299,0.97270,11789.25586,11473.17383,0
14.40008,14.40008,14.40008,0.00297,0.00297,0.00297,0.97270,11789.25586,11473.18555,0
14.50008,14.50008,14.50008,0.00292,0.00292,0.00292,0.97271,11789.25586,11473.21484,0
14.60008,14.60008,14.60008,0.00292,0.00292,0.00292,0.97271,11789.25586,11473.21680,0
14.70008,14.70008,14.70008,0.00288,0.00288,0.00288,0.97271,11789.25586,11473.24609,0
14.80008,14.80008,14.80008,0.00286,0.00286,0.00286,0.97271,11789.25586,11473.25586,0
14.90008,14.90008,14.90008,0.00286,0.00286,0.00286,0.97271,11789.25586,11473.25879,0
15.00008,15.00008,15.00008,0.00279,0.00279,0.00279,0.97271,11789.25586,11473.29883,0
15.10008,15.10008,15.10008,0.00281,0.00281,0.00281,0.97271,11789.25586,11473.29297,0
15.20008,15.20008,15.20008,0.00275,0.00275,0.00275,0.97272,11789.25586,11473.32617,0
15.30008,15.30008,15.30008,0.00274,0.00274,0.00274,0.97272,11789.25586,11473.33301,0
15.40008,15.40008,15.40008,0.00274,0.00274,0.00274,0.97272,11789.25586,11473.33887,0
15.50008,15.50008,15.50008,0.00269,0.00269,0.00269,0.97272,11789.25586,11473.36719,0
15.60008,15.60008,15.60008,0.00270,0.00270,0.00270,0.97272,11789.25586,11473.36621,0
15.70007,15.70007,15.70007,0.00264,0.00264,0.00264,0.97272,11789.25586,11473.39746,0
15.80007,15.80007,15.80007,0.00264,0.00264,0.00264,0.97272,11789.25586,11473.39941,0
15.90007,15.90007,15.90007,0.00266,0.00266,0.00266,0.97272,11789.25586,11473.38477,0
16.00007,16.00007,16.00007,0.00254,0.00254,0.00254,0.97273,11789.25586,11473.46387,0
16.10007,16.10007,16.10007,0.00257,0.00257,0.00257,0.97273,11789.25586,11473.44922,0
16.20007,16.20007,16.20007,0.00255,0.00255,0.00255,0.97273,11789.25586,11473.45410,0
16.30007,16.30007,16.30007,0.00255,0.00255,0.00255,0.97273,11789.25586,11473.45410,0
16.40007,16.40007,16.40007,0.00249,0.00249,0.00249,0.97273,11789.25586,11473.49707,0
16.50007,16.50007,16.50007,0.00249,0.00249,0.00249,0.97273,11789.25586,11473.49609,0
16.60007,16.60007,16.60007,0.00247,0.00247,0.00247,0.97273,11789.25586,11473.50977,0
16.70007,16.70007,16.70007,0.00246,0.00246,0.00246,0.97273,11789.25586,11473.51855,0
16.80007,16.80007,16.80007,0.00247,0.00247,0.00247,0.97273,11789.25586,11473.51172,0
16.90006,16.90006,16.90006,0.00238,0.00238,0.00238,0.97274,11789.25586,11473.56543,0
17.00006,17.00006,17.00006,0.00239,0.00239,0.00239,0.97274,11789.25586,11473.55957,0
17.10007,17.10007,17.10007,0.00238,0.00238,0.00238,0.97274,11789.25586,11473.56738,0
17.20007,17.20007,17.20007,0.00237,0.00237,0.00237,0.97274,11789.25586,11473.57715,0
17.30007,17.30007,17.30007,0.00238,0.00238,0.00238,0.97274,11789.25586,11473.57031,0
17.40006,17.40006,17.40006,0.00229,0.00229,0.00229,0.97274,11789.25586,11473.62207,0
17.50006,17.50006,17.50006,0.00230,0.00230,0.00230,0.97274,11789.25586,11473.61621,0
17.60006,17.60006,17.60006,0.00229,0.00229,0.00229,0.97274,11789.25586,11473.62402,0
17.70006,17.70006,17.70006,0.00228,0.00228,0.00228,0.97274,11789.25586,11473.63184,0
17.80006,17.80006,17.80006,0.00229,0.00229,0.00229,0.97274,11789.25586,11473.62500,0
17.90006,17.90006,17.90006,0.00220,0.00220,0.00220,0.97275,11789.25586,11473.67676,0
18.00006,18.00006,18.00006,0.00222,0.00222,0.00222,0.97274,11789.25586,11473.67090,0
18.10006,18.10006,18.10006,0.00221,0.00221,0.00221,0.97275,11789.25586,11473.68066,0
18.20006,18.20006,18.20006,0.00220,0.00220,0.00220,0.97275,11789.25586,11473.68652,0
18.30006,18.30006,18.30006,0.00221,0.00221,0.00221,0.97275,11789.25586,11473.68164,0
18.40006,18.40006,18.40006,0.00212,0.00212,0.00212,0.97275,11789.25586,11473.73145,0
18.50006,18.50006,18.50006,0.00214,0.00214,0.00214,0.97275,11789.25586,11473.72461,0
18.60006,18.60006,18.60006,0.00213,0.00213,0.00213,0.97275,11789.25586,11473.73145,0
18.70006,18.70006,18.70006,0.00212,0.00212,0.00212,0.97275,11789.25586,11473.73926,0
18.80006,18.80006,18.80006,0.00213,0.00213,0.00213,0.97275,11789.25586,11473.73242,0
18.90006,18.90006,18.90006,0.00204,0.00204,0.00204,0.97275,11789.25586,11473.78027,0
19.00006,19.00006,19.00006,0.00206,0.00206,0.00206,0.97275,11789.25586,11473.77441,0
19.10006,19.10006,19.10006,0.00205,0.00205,0.00205,0.97275,11789.25586,11473.78125,0
19.20006,19.20006,19.20006,0.00204,0.00204,0.00204,0.97275,11789.25586,11473.78906,0
19.30006,19.30006,19.30006,0.00206,0.00206,0.00206,0.97275,11789.25586,11473.78125,0
19.40005,19.40005,19.40005,0.00196,0.00196,0.00196,0.97276,11789.25586,11473.83203,0
19.50006,19.50006,19.50006,0.00201,0.00201,0.00201,0.97276,11789.25586,11473.81445,0
19.60006,19.60006,19.60006,0.00197,0.00197,0.00197,0.97276,11789.25586,11473.83203,0
19.70006,19.70006,19.70006,0.00197,0.00197,0.00197,0.97276,11789.25586,11473.83691,0
19.80006,19.80006,19.80006,0.00198,0.00198,0.00198,0.97276,11789.25586,11473.82910,0
19.90005,19.90005,19.90005,0.00189,0.00189,0.00189,0.97276,11789.25586,11473.87793,0
20.00006,20.00006,20.00006,0.00194,0.00194,0.00194,0.97276,11789.25586,11473.86035,0
20.10005,20.10005,20.10005,0.00190,0.00190,0.00190,0.97276,11789.25586,11473.87500,0
20.20005,20.20005,20.20005,0.00190,0.00190,0.00190,0.97276,11789.25586,11473.87988,0
20.30005,20.30005,20.30005,0.00191,0.00191,0.00191,0.97276,11789.25586,11473.87695,0
20.40005,20.40005,20.40005,0.00185,0.00185,0.00185,0.97277,11789.25586,11473.91602,0
20.50005,20.50005,20.50005,0.00187,0.00187,0.00187,0.97276,11789.25586,11473.90625,0
20.60005,20.60005,20.60005,0.00183,0.00183,0.00183,0.97277,11789.25586,11473.91992,0
20.70005,20.70005,20.70005,0.00183,0.00183,0.00183,0.97277,11789.25586,11473.92285,0
20.80005,20.80005,20.80005,0.00185,0.00185,0.00185,0.97277,11789.25586,11473.91797,0
20.90005,20.90005,20.90005,0.00176,0.00176,0.00176,0.97277,11789.25586,11473.95801,0
21.00005,21.00005,21.00005,0.00181,0.00181,0.00181,0.97277,11789.25586,11473.94531,0
21.10005,21.10005,21.10005,0.00177,0.00177,0.00177,0.97277,11789.25586,11473.95801,0
21.20005,21.20005,21.20005,0.00177,0.00177,0.00177,0.97277,11789.25586,11473.95996,0
21.30005,21.30005,21.30005,0.00179,0.00179,0.00179,0.97277,11789.25586,11473.95801,0
21.40005,21.40005,21.40005,0.00170,0.00170,0.00170,0.97277,11789.25586,11474.00586,0
21.50005,21.50005,21.50005,0.00175,0.00175,0.00175,0.97277,11789.25586,11473.98535,0
21.60005,21.60005,21.60005,0.00171,0.00171,0.00171,0.97277,11789.25586,11474.00586,0
21.70005,21.70005,21.70005,0.00171,0.00171,0.00171,0.97277,11789.25586,11474.00684,0
21.80005,21.80005,21.80005,0.00173,0.00173,0.00173,0.97277,11789.25586,11473.99023,0
21.90005,21.90005,21.90005,0.00164,0.00164,0.00164,0.97278,11789.25586,11474.04688,0
22.00005,22.00005,22.00005,0.00169,0.00169,0.00169,0.97277,11789.25586,11474.01855,0
22.10005,22.10005,22.10005,0.00165,0.00165,0.00165,0.97278,11789.25586,11474.04492,0
22.20005,22.20005,22.20005,0.00165,0.00165,0.00165,0.97278,11789.25586,11474.04492,0
22.30005,22.30005,22.30005,0.00167,0.00167,0.00167,0.97278,11789.25586,11474.04004,0
22.40004,22.40004,22.40004,0.00160,0.00160,0.00160,0.97278,11789.25586,11474.07324,0
22.50004,22.50004,22.50004,0.00161,0.00161,0.00161,0.97278,11789.25586,11474.06348,0
22.60004,22.60004,22.60004,0.00161,0.00161,0.00161,0.97278,11789.25586,11474.06836,0
22.70004,22.70004,22.70004,0.00160,0.00160,0.00160,0.97278,11789.25586,11474.07324,0
22.80005,22.80005,22.80005,0.00162,0.00162,0.00162,0.97278,11789.25586,11474.06543,0
22.90004,22.90004,22.90004,0.00154,0.00154,0.00154,0.97278,11789.25586,11474.10742,0
23.00004,23.00004,23.00004,0.00156,0.00156,0.00156,0.97278,11789.25586,11474.09961,0
23.10004,23.10004,23.10004,0.00155,0.00155,0.00155,0.97278,11789.25586,11474.10352,0
23.20004,23.20004,23.20004,0.00155,0.00155,0.00155,0.97278,11789.25586,11474.10742,0
23.30004,23.30004,23.30004,0.00156,0.00156,0.00156,0.97278,11789.25586,11474.10059,0
23.40004,23.40004,23.40004,0.00149,0.00149,0.00149,0.97278,11789.25586,11474.14160,0
23.50004,23.50004,23.50004,0.00151,0.00151,0.00151,0.97278,11789.25586,11474.13379,0
23.60004,23.60004,23.60004,0.00150,0.00150,0.00150,0.97278,11789.25586,11474.13770,0
23.70004,23.70004,23.70004,0.00150,0.00150,0.00150,0.97278,11789.25586,11474.14160,0
