x,y,z,vx,vy,vz,temperature,density,pressure,is_star
0.04642,0.04642,0.04642,1.34826,1.34826,1.34826,0.87815,11789.25586,10357.92285,0
0.11448,0.11448,0.11448,0.29278,0.29278,0.29278,0.93615,11789.25586,11042.06641,0
0.20964,0.20964,0.20964,0.23620,0.23620,0.23620,0.94527,11789.25586,11149.59082,0
0.30709,0.30709,0.30709,0.17918,0.17918,0.17918,0.95010,11789.25586,11206.53027,0
0.40559,0.40559,0.40559,0.14319,0.14319,0.14319,0.95295,11789.25586,11240.18945,0
0.50461,0.50461,0.50461,0.11890,0.11890,0.11890,0.95482,11789.25586,11262.30371,0
0.60392,0.60392,0.60392,0.10152,0.10152,0.10152,0.95615,11789.25586,11277.90137,0
0.70340,0.70340,0.70340,0.08847,0.08847,0.08847,0.95713,11789.25586,11289.50195,0
0.80301,0.80301,0.80301,0.07836,0.07836,0.07836,0.95789,11789.25586,11298.43359,0
0.90269,0.90269,0.90269,0.07028,0.07028,0.07028,0.95849,11789.25586,11305.53320,0
1.00244,1.00244,1.00244,0.06370,0.06370,0.06370,0.95898,11789.25586,11311.31641,0
1.10222,1.10222,1.10222,0.05822,0.05822,0.05822,0.95939,11789.25586,11316.11035,0
1.20205,1.20205,1.20205,0.05358,0.05358,0.05358,0.95973,11789.25586,11320.15430,0
1.30190,1.30190,1.30190,0.04965,0.04965,0.04965,0.96002,11789.25586,11323.58594,0
1.40176,1.40176,1.40176,0.04622,0.04622,0.04622,0.96027,11789.25586,11326.57129,0
1.50165,1.50165,1.50165,0.04320,0.04320,0.04320,0.96049,11789.25586,11329.18457,0
1.60155,1.60155,1.60155,0.04061,0.04061,0.04061,0.96069,11789.25586,11331.44922,0
1.70146,1.70146,1.70146,0.03827,0.03827,0.03827,0.96086,11789.25586,11333.48145,0
1.80138,1.80138,1.80138,0.03619,0.03619,0.03619,0.96101,11789.25586,11335.28613,0
1.90130,1.90130,1.90130,0.03426,0.03426,0.03426,0.96115,11789.25586,11336.94043,0
2.00124,2.00124,2.00124,0.03262,0.03262,0.03262,0.96127,11789.25586,11338.38477,0
2.10118,2.10118,2.10118,0.03108,0.03108,0.03108,0.96139,11789.25586,11339.71289,0
2.20113,2.20113,2.20113,0.02966,0.02966,0.02966,0.96149,11789.25586,11340.93652,0
2.30108,2.30108,2.30108,0.02838,0.02838,0.02838,0.96159,11789.25586,11342.05859,0
2.40104,2.40104,2.40104,0.02720,0.02720,0.02720,0.96167,11789.25586,11343.07617,0
2.50099,2.50099,2.50099,0.02612,0.02612,0.02612,0.96175,11789.25586,11344.01074,0
2.60096,2.60096,2.60096,0.02510,0.02510,0.02510,0.96183,11789.25586,11344.89551,0
2.70092,2.70092,2.70092,0.02417,0.02417,0.02417,0.96189,11789.25586,11345.69727,0
2.80089,2.80089,2.80089,0.02329,0.02329,0.02329,0.96196,11789.25586,11346.45312,0
2.90086,2.90086,2.90086,0.02250,0.02250,0.02250,0.96202,11789.25586,11347.14355,0
3.00083,3.00083,3.00083,0.02173,0.02173,0.02173,0.96207,11789.25586,11347.80957,0
3.10080,3.10080,3.10080,0.02102,0.02102,0.02102,0.96213,11789.25586,11348.42285,0
3.20077,3.20077,3.20077,0.02036,0.02036,0.02036,0.96217,11789.25586,11348.99121,0
3.30075,3.30075,3.30075,0.01971,0.01971,0.01971,0.96222,11789.25586,11349.54980,0
3.40073,3.40073,3.40073,0.01915,0.01915,0.01915,0.96226,11789.25586,11350.04004,0
3.50071,3.50071,3.50071,0.01857,0.01857,0.01857,0.96231,11789.25586,11350.53809,0
3.60069,3.60069,3.60069,0.01807,0.01807,0.01807,0.96234,11789.25586,11350.97852,0
3.70067,3.70067,3.70067,0.01751,0.01751,0.01751,0.96238,11789.25586,11351.44531,0
3.80065,3.80065,3.80065,0.01709,0.01709,0.01709,0.96241,11789.25586,11351.82422,0
3.90063,3.90063,3.90063,0.01666,0.01666,0.01666,0.96245,11789.25586,11352.20020,0
4.00062,4.00062,4.00062,0.01618,0.01618,0.01618,0.96248,11789.25586,11352.60547,0
4.10060,4.10060,4.10060,0.01577,0.01577,0.01577,0.96251,11789.25586,11352.95605,0
4.20059,4.20059,4.20059,0.01542,0.01542,0.01542,0.96254,11789.25586,11353.26465,0
4.30057,4.30057,4.30057,0.01504,0.01504,0.01504,0.96256,11789.25586,11353.59473,0
4.40056,4.40056,4.40056,0.01467,0.01467,0.01467,0.96259,11789.25586,11353.90820,0
4.50055,4.50055,4.50055,0.01434,0.01434,0.01434,0.96261,11789.25586,11354.19141,0
4.60053,4.60053,4.60053,0.01401,0.01401,0.01401,0.96264,11789.25586,11354.47949,0
4.70052,4.70052,4.70052,0.01372,0.01372,0.01372,0.96266,11789.25586,11354.74121,0
4.80051,4.80051,4.80051,0.01340,0.01340,0.01340,0.96268,11789.25586,11355.00293,0
4.90050,4.90050,4.90050,0.01313,0.01313,0.01313,0.96270,11789.25586,11355.25098,0
5.00049,5.00049,5.00049,0.01285,0.01285,0.01285,0.96272,11789.25586,11355.48438,0
5.10048,5.10048,5.10048,0.01258,0.01258,0.01258,0.96274,11789.25586,11355.71777,0
5.20047,5.20047,5.20047,0.01233,0.01233,0.01233,0.96276,11789.25586,11355.92773,0
5.30046,5.30046,5.30046,0.01208,0.01208,0.01208,0.96278,11789.25586,11356.14355,0
5.40045,5.40045,5.40045,0.01188,0.01188,0.01188,0.96280,11789.25586,11356.33301,0
5.50044,5.50044,5.50044,0.01157,0.01157,0.01157,0.96282,11789.25586,11356.57324,0
5.60043,5.60043,5.60043,0.01141,0.01141,0.01141,0.96283,11789.25586,11356.73145,0
5.70043,5.70043,5.70043,0.01122,0.01122,0.01122,0.96284,11789.25586,11356.89941,0
5.80042,5.80042,5.80042,0.01100,0.01100,0.01100,0.96286,11789.25586,11357.08398,0
5.90041,5.90041,5.90041,0.01078,0.01078,0.01078,0.96288,11789.25586,11357.26660,0
6.00040,6.00040,6.00040,0.01060,0.01060,0.01060,0.96289,11789.25586,11357.43359,0
6.10040,6.10040,6.10040,0.01040,0.01040,0.01040,0.96290,11789.25586,11357.59375,0
6.20039,6.20039,6.20039,0.01026,0.01026,0.01026,0.96291,11789.25586,11357.72461,0
6.30038,6.30038,6.30038,0.01006,0.01006,0.01006,0.96293,11789.25586,11357.89453,0
6.40037,6.40037,6.40037,0.00988,0.00988,0.00988,0.96294,11789.25586,11358.04785,0
6.50037,6.50037,6.50037,0.00975,0.00975,0.00975,0.96295,11789.25586,11358.16895,0
6.60036,6.60036,6.60036,0.00958,0.00958,0.00958,0.96296,11789.25586,11358.31250,0
6.70036,6.70036,6.70036,0.00942,0.00942,0.00942,0.96298,11789.25586,11358.44629,0
6.80035,6.80035,6.80035,0.00928,0.00928,0.00928,0.96299,11789.25586,11358.57129,0
6.90035,6.90035,6.90035,0.00914,0.00914,0.00914,0.96300,11789.25586,11358.69922,0
7.00034,7.00034,7.00034,0.00899,0.00899,0.00899,0.96301,11789.25586,11358.82617,0
7.10033,7.10033,7.10033,0.00881,0.00881,0.00881,0.96302,11789.25586,11358.95801,0
7.20033,7.20033,7.20033,0.00875,0.00875,0.00875,0.96303,11789.25586,11359.03320,0
7.30033,7.30033,7.30033,0.00864,0.00864,0.00864,0.96303,11789.25586,11359.13281,0
7.40032,7.40032,7.40032,0.00841,0.00841,0.00841,0.96305,11789.25586,11359.30762,0
7.50032,7.50032,7.50032,0.00835,0.00835,0.00835,0.96305,11789.25586,11359.37988,0
7.60031,7.60031,7.60031,0.00820,0.00820,0.00820,0.96306,11789.25586,11359.49609,0
7.70031,7.70031,7.70031,0.00812,0.00812,0.00812,0.96307,11789.25586,11359.57910,0
7.80030,7.80030,7.80030,0.00800,0.00800,0.00800,0.96308,11789.25586,11359.67578,0
7.90030,7.90030,7.90030,0.00791,0.00791,0.00791,0.96309,11789.25586,11359.76367,0
8.00029,8.00029,8.00029,0.00772,0.00772,0.00772,0.96310,11789.25586,11359.89941,0
8.10029,8.10029,8.10029,0.00769,0.00769,0.00769,0.96310,11789.25586,11359.94727,0
8.20029,8.20029,8.20029,0.00756,0.00756,0.00756,0.96311,11789.25586,11360.05469,0
8.30028,8.30028,8.30028,0.00745,0.00745,0.00745,0.96312,11789.25586,11360.14453,0
8.40028,8.40028,8.40028,0.00741,0.00741,0.00741,0.96312,11789.25586,11360.19336,0
8.50027,8.50027,8.50027,0.00722,0.00722,0.00722,0.96314,11789.25586,11360.33398,0
8.60027,8.60027,8.60027,0.00722,0.00722,0.00722,0.96314,11789.25586,11360.36035,0
8.70027,8.70027,8.70027,0.00704,0.00704,0.00704,0.96315,11789.25586,11360.48828,0
8.80027,8.80027,8.80027,0.00700,0.00700,0.00700,0.96315,11789.25586,11360.53418,0
8.90027,8.90027,8.90027,0.00699,0.00699,0.00699,0.96316,11789.25586,11360.56836,0
9.00026,9.00026,9.00026,0.00675,0.00675,0.00675,0.96317,11789.25586,11360.73633,0
9.10026,9.10026,9.10026,0.00677,0.00677,0.00677,0.96317,11789.25586,11360.74805,0
9.20025,9.20025,9.20025,0.00664,0.00664,0.00664,0.96318,11789.25586,11360.84863,0
9.30025,9.30025,9.30025,0.00658,0.00658,0.00658,0.96318,11789.25586,11360.90039,0
9.40025,9.40025,9.40025,0.00651,0.00651,0.00651,0.96319,11789.25586,11360.95605,0
9.50024,9.50024,9.50024,0.00642,0.00642,0.00642,0.96320,11789.25586,11361.04590,0
9.60024,9.60024,9.60024,0.00634,0.00634,0.00634,0.96320,11789.25586,11361.09766,0
9.70024,9.70024,9.70024,0.00626,0.00626,0.00626,0.96321,11789.25586,11361.17578,0
9.80023,9.80023,9.80023,0.00621,0.00621,0.00621,0.96321,11789.25586,11361.22461,0
9.90023,9.90023,9.90023,0.00614,0.00614,0.00614,0.96322,11789.25586,11361.27734,0
10.00023,10.00023,10.00023,0.00606,0.00606,0.00606,0.96322,11789.25586,11361.35254,0
10.10023,10.10023,10.10023,0.00601,0.00601,0.00601,0.96323,11789.25586,11361.39648,0
10.20022,10.20022,10.20022,0.00589,0.00589,0.00589,0.96323,11789.25586,11361.48730,0
10.30022,10.30022,10.30022,0.00586,0.00586,0.00586,0.96324,11789.25586,11361.52246,0
10.40022,10.40022,10.40022,0.00584,0.00584,0.00584,0.96324,11789.25586,11361.55371,0
10.50022,10.50022,10.50022,0.00572,0.00572,0.00572,0.96325,11789.25586,11361.63965,0
10.60022,10.60022,10.60022,0.00570,0.00570,0.00570,0.96325,11789.25586,11361.66699,0
10.70021,10.70021,10.70021,0.00558,0.00558,0.00558,0.96326,11789.25586,11361.76074,0
10.80021,10.80021,10.80021,0.00555,0.00555,0.00555,0.96326,11789.25586,11361.79199,0
10.90021,10.90021,10.90021,0.00550,0.00550,0.00550,0.96326,11789.25586,11361.82910,0
11.00021,11.00021,11.00021,0.00545,0.00545,0.00545,0.96327,11789.25586,11361.88770,0
11.10020,11.10020,11.10020,0.00537,0.00537,0.00537,0.96327,11789.25586,11361.93945,0
11.20020,11.20020,11.20020,0.00531,0.00531,0.00531,0.96328,11789.25586,11361.99902,0
11.30020,11.30020,11.30020,0.00528,0.00528,0.00528,0.96328,11789.25586,11362.03125,0
11.40020,11.40020,11.40020,0.00523,0.00523,0.00523,0.96328,11789.25586,11362.06934,0
11.50019,11.50019,11.50019,0.00515,0.00515,0.00515,0.96329,11789.25586,11362.12988,0
11.60019,11.60019,11.60019,0.00513,0.00513,0.00513,0.96329,11789.25586,11362.15820,0
11.70019,11.70019,11.70019,0.00503,0.00503,0.00503,0.96330,11789.25586,11362.23242,0
11.80019,11.80019,11.80019,0.00501,0.00501,0.00501,0.96330,11789.25586,11362.25586,0
11.90019,11.90019,11.90019,0.00500,0.00500,0.00500,0.96330,11789.25586,11362.27246,0
12.00019,12.00019,12.00019,0.00488,0.00488,0.00488,0.96331,11789.25586,11362.36230,0
12.10019,12.10019,12.10019,0.00491,0.00491,0.00491,0.96331,11789.25586,11362.35352,0
12.20018,12.20018,12.20018,0.00478,0.00478,0.00478,0.96332,11789.25586,11362.45215,0
12.30018,12.30018,12.30018,0.00476,0.00476,0.00476,0.96332,11789.25586,11362.46191,0
12.40018,12.40018,12.40018,0.00477,0.00477,0.00477,0.96332,11789.25586,11362.47656,0
12.50018,12.50018,12.50018,0.00464,0.00464,0.00464,0.96333,11789.25586,11362.56738,0
12.60018,12.60018,12.60018,0.00465,0.00465,0.00465,0.96333,11789.25586,11362.56738,0
12.70017,12.70017,12.70017,0.00458,0.00458,0.00458,0.96333,11789.25586,11362.62500,0
12.80017,12.80017,12.80017,0.00454,0.00454,0.00454,0.96333,11789.25586,11362.66016,0
12.90017,12.90017,12.90017,0.00454,0.00454,0.00454,0.96333,11789.25586,11362.66797,0
13.00017,13.00017,13.00017,0.00445,0.00445,0.00445,0.96334,11789.25586,11362.74023,0
13.10017,13.10017,13.10017,0.00443,0.00443,0.00443,0.96334,11789.25586,11362.75098,0
13.20017,13.20017,13.20017,0.00437,0.00437,0.00437,0.96335,11789.25586,11362.81152,0
13.30017,13.30017,13.30017,0.00435,0.00435,0.00435,0.96335,11789.25586,11362.82812,0
13.40017,13.40017,13.40017,0.00436,0.00436,0.00436,0.96335,11789.25586,11362.82910,0
13.50016,13.50016,13.50016,0.00422,0.00422,0.00422,0.96336,11789.25586,11362.92578,0
13.60016,13.60016,13.60016,0.00425,0.00425,0.00425,0.96335,11789.25586,11362.91699,0
13.70016,13.70016,13.70016,0.00417,0.00417,0.00417,0.96336,11789.25586,11362.97949,0
13.80016,13.80016,13.80016,0.00416,0.00416,0.00416,0.96336,11789.25586,11362.99414,0
13.90016,13.90016,13.90016,0.00415,0.00415,0.00415,0.96336,11789.25586,11363.00391,0
14.00015,14.00015,14.00015,0.00405,0.00405,0.00405,0.96337,11789.25586,11363.07617,0
14.10015,14.10015,14.10015,0.00407,0.00407,0.00407,0.96337,11789.25586,11363.07227,0
14.20015,14.20015,14.20015,0.00399,0.00399,0.00399,0.96337,11789.25586,11363.13281,0
14.30015,14.30015,14.30015,0.00399,0.00399,0.00399,0.96337,11789.25586,11363.14258,0
14.40015,14.40015,14.40015,0.00396,0.00396,0.00396,0.96338,11789.25586,11363.16602,0
14.50015,14.50015,14.50015,0.00389,0.00389,0.00389,0.96338,11789.25586,11363.21973,0
14.60015,14.60015,14.60015,0.00390,0.00390,0.00390,0.96338,11789.25586,11363.21973,0
14.70015,14.70015,14.70015,0.00383,0.00383,0.00383,0.96338,11789.25586,11363.27344,0
14.80015,14.80015,14.80015,0.00381,0.00381,0.00381,0.96339,11789.25586,11363.29199,0
14.90015,14.90015,14.90015,0.00382,0.00382,0.00382,0.96339,11789.25586,11363.29199,0
15.00014,15.00014,15.00014,0.00371,0.00371,0.00371,0.96339,11789.25586,11363.36914,0
15.10014,15.10014,15.10014,0.00375,0.00375,0.00375,0.96339,11789.25586,11363.35352,0
15.20014,15.20014,15.20014,0.00365,0.00365,0.00365,0.96340,11789.25586,11363.42188,0
15.30014,15.30014,15.30014,0.00366,0.00366,0.00366,0.96340,11789.25586,11363.42773,0
15.40014,15.40014,15.40014,0.00365,0.00365,0.00365,0.96340,11789.25586,11363.43359,0
15.50014,15.50014,15.50014,0.00358,0.00358,0.00358,0.96340,11789.25586,11363.48926,0
15.60014,15.60014,15.60014,0.00360,0.00360,0.00360,0.96340,11789.25586,11363.48047,0
15.70013,15.70013,15.70013,0.00351,0.00351,0.00351,0.96341,11789.25586,11363.54395,0
15.80013,15.80013,15.80013,0.00352,0.00352,0.00352,0.96341,11789.25586,11363.54297,0
15.90014,15.90014,15.90014,0.00358,0.00358,0.00358,0.96341,11789.25586,11363.51074,0
16.00013,16.00013,16.00013,0.00335,0.00335,0.00335,0.96342,11789.25586,11363.66504,0
16.10013,16.10013,16.10013,0.00342,0.00342,0.00342,0.96342,11789.25586,11363.63184,0
16.20013,16.20013,16.20013,0.00340,0.00340,0.00340,0.96342,11789.25586,11363.64355,0
16.30013,16.30013,16.30013,0.00341,0.00341,0.00341,0.96342,11789.25586,11363.64062,0
16.40012,16.40012,16.40012,0.00331,0.00331,0.00331,0.96342,11789.25586,11363.72070,0
16.50012,16.50012,16.50012,0.00332,0.00332,0.00332,0.96342,11789.25586,11363.71777,0
16.60012,16.60012,16.60012,0.00330,0.00330,0.00330,0.96342,11789.25586,11363.73828,0
16.70012,16.70012,16.70012,0.00327,0.00327,0.00327,0.96343,11789.25586,11363.75488,0
16.80013,16.80013,16.80013,0.00331,0.00331,0.00331,0.96342,11789.25586,11363.73828,0
16.90012,16.90012,16.90012,0.00316,0.00316,0.00316,0.96343,11789.25586,11363.84473,0
17.00012,17.00012,17.00012,0.00319,0.00319,0.00319,0.96343,11789.25586,11363.82812,0
17.10012,17.10012,17.10012,0.00317,0.00317,0.00317,0.96343,11789.25586,11363.84375,0
17.20012,17.20012,17.20012,0.00316,0.00316,0.00316,0.96343,11789.25586,11363.85840,0
17.30012,17.30012,17.30012,0.00318,0.00318,0.00318,0.96343,11789.25586,11363.84473,0
17.40011,17.40011,17.40011,0.00304,0.00304,0.00304,0.96344,11789.25586,11363.94629,0
17.50011,17.50011,17.50011,0.00307,0.00307,0.00307,0.96344,11789.25586,11363.93066,0
17.60011,17.60011,17.60011,0.00305,0.00305,0.00305,0.96344,11789.25586,11363.94434,0
17.70011,17.70011,17.70011,0.00304,0.00304,0.00304,0.96344,11789.25586,11363.95898,0
17.80011,17.80011,17.80011,0.00307,0.00307,0.00307,0.96344,11789.25586,11363.94336,0
17.90010,17.90010,17.90010,0.00293,0.00293,0.00293,0.96345,11789.25586,11364.04102,0
18.00010,18.00010,18.00010,0.00296,0.00296,0.00296,0.96345,11789.25586,11364.02832,0
18.10010,18.10010,18.10010,0.00294,0.00294,0.00294,0.96345,11789.25586,11364.04297,0
18.20010,18.20010,18.20010,0.00293,0.00293,0.00293,0.96345,11789.25586,11364.05371,0
18.30010,18.30010,18.30010,0.00295,0.00295,0.00295,0.96345,11789.25586,11364.04102,0
18.40009,18.40009,18.40009,0.00282,0.00282,0.00282,0.96346,11789.25586,11364.13770,0
18.50010,18.50010,18.50010,0.00285,0.00285,0.00285,0.96346,11789.25586,11364.12207,0
18.60010,18.60010,18.60010,0.00283,0.00283,0.00283,0.96346,11789.25586,11364.13379,0
18.70010,18.70010,18.70010,0.00282,0.00282,0.00282,0.96346,11789.25586,11364.14746,0
18.80010,18.80010,18.80010,0.00285,0.00285,0.00285,0.96346,11789.25586,11364.13184,0
18.90009,18.90009,18.90009,0.00272,0.00272,0.00272,0.96347,11789.25586,11364.22461,0
19.00009,19.00009,19.00009,0.00275,0.00275,0.00275,0.96346,11789.25586,11364.20898,0
19.10009,19.10009,19.10009,0.00273,0.00273,0.00273,0.96347,11789.25586,11364.22266,0
19.20009,19.20009,19.20009,0.00272,0.00272,0.00272,0.96347,11789.25586,11364.23438,0
19.30009,19.30009,19.30009,0.00274,0.00274,0.00274,0.96346,11789.25586,11364.21777,0
19.40009,19.40009,19.40009,0.00261,0.00261,0.00261,0.96347,11789.25586,11364.32129,0
19.50009,19.50009,19.50009,0.00269,0.00269,0.00269,0.96347,11789.25586,11364.27344,0
19.60009,19.60009,19.60009,0.00262,0.00262,0.00262,0.96347,11789.25586,11364.31445,0
19.70009,19.70009,19.70009,0.00262,0.00262,0.00262,0.96347,11789.25586,11364.31836,0
19.80009,19.80009,19.80009,0.00265,0.00265,0.00265,0.96347,11789.25586,11364.30273,0
19.90009,19.90009,19.90009,0.00251,0.00251,0.00251,0.96348,11789.25586,11364.40332,0
20.00009,20.00009,20.00009,0.00260,0.00260,0.00260,0.96348,11789.25586,11364.35449,0
20.10009,20.10009,20.10009,0.00253,0.00253,0.00253,0.96348,11789.25586,11364.39258,0
20.20009,20.20009,20.20009,0.00253,0.00253,0.00253,0.96348,11789.25586,11364.39746,0
20.30009,20.30009,20.30009,0.00254,0.00254,0.00254,0.96348,11789.25586,11364.38965,0
20.40009,20.40009,20.40009,0.00246,0.00246,0.00246,0.96349,11789.25586,11364.45605,0
20.50009,20.50009,20.50009,0.00249,0.00249,0.00249,0.96348,11789.25586,11364.43945,0
20.60009,20.60009,20.60009,0.00244,0.00244,0.00244,0.96349,11789.25586,11364.47168,0
20.70009,20.70009,20.70009,0.00244,0.00244,0.00244,0.96349,11789.25586,11364.47363,0
20.80009,20.80009,20.80009,0.00247,0.00247,0.00247,0.96349,11789.25586,11364.45605,0
20.90009,20.90009,20.90009,0.00234,0.00234,0.00234,0.96349,11789.25586,11364.54688,0
21.00009,21.00009,21.00009,0.00242,0.00242,0.00242,0.96349,11789.25586,11364.50977,0
21.10009,21.10009,21.10009,0.00236,0.00236,0.00236,0.96349,11789.25586,11364.53906,0
21.20009,21.20009,21.20009,0.00236,0.00236,0.00236,0.96349,11789.25586,11364.54004,0
21.30009,21.30009,21.30009,0.00239,0.00239,0.00239,0.96349,11789.25586,11364.53613,0
21.40008,21.40008,21.40008,0.00226,0.00226,0.00226,0.96350,11789.25586,11364.62500,0
21.50009,21.50009,21.50009,0.00234,0.00234,0.00234,0.96350,11789.25586,11364.57520,0
21.60008,21.60008,21.60008,0.00228,0.00228,0.00228,0.96350,11789.25586,11364.61719,0
21.70008,21.70008,21.70008,0.00228,0.00228,0.00228,0.96350,11789.25586,11364.61719,0
21.80009,21.80009,21.80009,0.00231,0.00231,0.00231,0.96350,11789.25586,11364.59375,0
21.90008,21.90008,21.90008,0.00218,0.00218,0.00218,0.96351,11789.25586,11364.69531,0
22.00008,22.00008,22.00008,0.00226,0.00226,0.00226,0.96350,11789.25586,11364.63965,0
22.10008,22.10008,22.10008,0.00220,0.00220,0.00220,0.96350,11789.25586,11364.68652,0
22.20008,22.20008,22.20008,0.00221,0.00221,0.00221,0.96350,11789.25586,11364.68457,0
22.30008,22.30008,22.30008,0.00223,0.00223,0.00223,0.96350,11789.25586,11364.66992,0
22.40008,22.40008,22.40008,0.00212,0.00212,0.00212,0.96351,11789.25586,11364.74316,0
22.50008,22.50008,22.50008,0.00215,0.00215,0.00215,0.96351,11789.25586,11364.72461,0
22.60008,22.60008,22.60008,0.00214,0.00214,0.00214,0.96351,11789.25586,11364.73242,0
22.70008,22.70008,22.70008,0.00213,0.00213,0.00213,0.96351,11789.25586,11364.74023,0
22.80008,22.80008,22.80008,0.00216,0.00216,0.00216,0.96351,11789.25586,11364.72266,0
22.90008,22.90008,22.90008,0.00205,0.00205,0.00205,0.96351,11789.25586,11364.80469,0
23.00008,23.00008,23.00008,0.00208,0.00208,0.00208,0.96351,11789.25586,11364.78809,0
23.10008,23.10008,23.10008,0.00207,0.00207,0.00207,0.96351,11789.25586,11364.79395,0
23.20008,23.20008,23.20008,0.00206,0.00206,0.00206,0.96351,11789.25586,11364.80078,0
23.30008,23.30008,23.30008,0.00209,0.00209,0.00209,0.96351,11789.25586,11364.78320,0
23.40008,23.40008,23.40008,0.00198,0.00198,0.00198,0.96352,11789.25586,11364.86523,0
23.50008,23.50008,23.50008,0.00201,0.00201,0.00201,0.96352,11789.25586,11364.84863,0
23.60008,23.60008,23.60008,0.00200,0.00200,0.00200,0.96352,11789.25586,11364.85547,0
23.70008,23.70008,23.70008,0.00200,0.00200,0.00200,0.96352,11789.25586,11364.86035,0
