x,y,z,vx,vy,vz,temperature,density,pressure,is_star
0.06862,0.06862,0.06862,1.82554,1.82554,1.82554,0.83411,11789.25586,9838.41504,0
0.11779,0.11779,0.11779,0.15194,0.15194,0.15194,0.92348,11789.25586,10892.57129,0
0.21314,0.21314,0.21314,0.26022,0.26022,0.26022,0.93212,11789.25586,10994.49121,0
0.30979,0.30979,0.30979,0.20407,0.20407,0.20407,0.93838,11789.25586,11068.33301,0
0.40776,0.40776,0.40776,0.16518,0.16518,0.16518,0.94219,11789.25586,11113.31836,0
0.50642,0.50642,0.50642,0.13807,0.13807,0.13807,0.94473,11789.25586,11143.26270,0
0.60547,0.60547,0.60547,0.11837,0.11837,0.11837,0.94654,11789.25586,11164.53223,0
0.70475,0.70475,0.70475,0.10342,0.10342,0.10342,0.94788,11789.25586,11180.43359,0
0.80421,0.80421,0.80421,0.09178,0.09178,0.09178,0.94892,11789.25586,11192.71289,0
0.90377,0.90377,0.90377,0.08244,0.08244,0.08244,0.94975,11789.25586,11202.49512,0
1.00341,1.00341,1.00341,0.07479,0.07479,0.07479,0.95043,11789.25586,11210.47559,0
1.10312,1.10312,1.10312,0.06841,0.06841,0.06841,0.95099,11789.25586,11217.10547,0
1.20287,1.20287,1.20287,0.06299,0.06299,0.06299,0.95147,11789.25586,11222.70312,0
1.30266,1.30266,1.30266,0.05841,0.05841,0.05841,0.95187,11789.25586,11227.45215,0
1.40247,1.40247,1.40247,0.05440,0.05440,0.05440,0.95222,11789.25586,11231.58984,0
1.50231,1.50231,1.50231,0.05086,0.05086,0.05086,0.95253,11789.25586,11235.22266,0
1.60217,1.60217,1.60217,0.04783,0.04783,0.04783,0.95279,11789.25586,11238.35938,0
1.70205,1.70205,1.70205,0.04508,0.04508,0.04508,0.95303,11789.25586,11241.18066,0
1.80193,1.80193,1.80193,0.04265,0.04265,0.04265,0.95325,11789.25586,11243.68555,0
1.90183,1.90183,1.90183,0.04037,0.04037,0.04037,0.95344,11789.25586,11245.99512,0
2.00174,2.00174,2.00174,0.03846,0.03846,0.03846,0.95361,11789.25586,11247.99023,0
2.10166,2.10166,2.10166,0.03664,0.03664,0.03664,0.95377,11789.25586,11249.84277,0
2.20159,2.20159,2.20159,0.03498,0.03498,0.03498,0.95391,11789.25586,11251.54492,0
2.30152,2.30152,2.30152,0.03346,0.03346,0.03346,0.95404,11789.25586,11253.10059,0
2.40145,2.40145,2.40145,0.03207,0.03207,0.03207,0.95416,11789.25586,11254.51562,0
2.50140,2.50140,2.50140,0.03082,0.03082,0.03082,0.95427,11789.25586,11255.81641,0
2.60134,2.60134,2.60134,0.02960,0.02960,0.02960,0.95438,11789.25586,11257.04980,0
2.70129,2.70129,2.70129,0.02852,0.02852,0.02852,0.95447,11789.25586,11258.16309,0
2.80124,2.80124,2.80124,0.02748,0.02748,0.02748,0.95456,11789.25586,11259.22070,0
2.90120,2.90120,2.90120,0.02655,0.02655,0.02655,0.95464,11789.25586,11260.17871,0
3.00116,3.00116,3.00116,0.02564,0.02564,0.02564,0.95472,11789.25586,11261.10547,0
3.10112,3.10112,3.10112,0.02480,0.02480,0.02480,0.95480,11789.25586,11261.95898,0
3.20109,3.20109,3.20109,0.02403,0.02403,0.02403,0.95486,11789.25586,11262.75098,0
3.30105,3.30105,3.30105,0.02325,0.02325,0.02325,0.95493,11789.25586,11263.53125,0
3.40102,3.40102,3.40102,0.02260,0.02260,0.02260,0.95499,11789.25586,11264.21191,0
3.50099,3.50099,3.50099,0.02191,0.02191,0.02191,0.95505,11789.25586,11264.90723,0
3.60097,3.60097,3.60097,0.02134,0.02134,0.02134,0.95510,11789.25586,11265.51270,0
3.70093,3.70093,3.70093,0.02065,0.02065,0.02065,0.95515,11789.25586,11266.17773,0
3.80091,3.80091,3.80091,0.02018,0.02018,0.02018,0.95520,11789.25586,11266.69434,0
3.90089,3.90089,3.90089,0.01966,0.01966,0.01966,0.95524,11789.25586,11267.21777,0
4.00086,4.00086,4.00086,0.01910,0.01910,0.01910,0.95529,11789.25586,11267.78516,0
4.10084,4.10084,4.10084,0.01861,0.01861,0.01861,0.95533,11789.25586,11268.27539,0
4.20082,4.20082,4.20082,0.01820,0.01820,0.01820,0.95537,11789.25586,11268.70312,0
4.30080,4.30080,4.30080,0.01776,0.01776,0.01776,0.95541,11789.25586,11269.15918,0
4.40078,4.40078,4.40078,0.01732,0.01732,0.01732,0.95544,11789.25586,11269.59961,0
4.50077,4.50077,4.50077,0.01693,0.01693,0.01693,0.95548,11789.25586,11269.99609,0
4.60075,4.60075,4.60075,0.01653,0.01653,0.01653,0.95551,11789.25586,11270.39941,0
4.70073,4.70073,4.70073,0.01620,0.01620,0.01620,0.95554,11789.25586,11270.75781,0
4.80071,4.80071,4.80071,0.01581,0.01581,0.01581,0.95557,11789.25586,11271.12793,0
4.90070,4.90070,4.90070,0.01550,0.01550,0.01550,0.95560,11789.25586,11271.46680,0
5.00069,5.00069,5.00069,0.01517,0.01517,0.01517,0.95563,11789.25586,11271.79590,0
5.10067,5.10067,5.10067,0.01485,0.01485,0.01485,0.95566,11789.25586,11272.12207,0
5.20066,5.20066,5.20066,0.01457,0.01457,0.01457,0.95568,11789.25586,11272.41504,0
5.30064,5.30064,5.30064,0.01426,0.01426,0.01426,0.95571,11789.25586,11272.71484,0
5.40063,5.40063,5.40063,0.01403,0.01403,0.01403,0.95573,11789.25586,11272.97363,0
5.50062,5.50062,5.50062,0.01364,0.01364,0.01364,0.95576,11789.25586,11273.32324,0
5.60061,5.60061,5.60061,0.01348,0.01348,0.01348,0.95578,11789.25586,11273.53223,0
5.70060,5.70060,5.70060,0.01325,0.01325,0.01325,0.95580,11789.25586,11273.76758,0
5.80059,5.80059,5.80059,0.01298,0.01298,0.01298,0.95582,11789.25586,11274.02637,0
5.90058,5.90058,5.90058,0.01273,0.01273,0.01273,0.95584,11789.25586,11274.28125,0
6.00057,6.00057,6.00057,0.01252,0.01252,0.01252,0.95586,11789.25586,11274.51074,0
6.10056,6.10056,6.10056,0.01228,0.01228,0.01228,0.95588,11789.25586,11274.73926,0
6.20055,6.20055,6.20055,0.01212,0.01212,0.01212,0.95589,11789.25586,11274.91699,0
6.30054,6.30054,6.30054,0.01187,0.01187,0.01187,0.95591,11789.25586,11275.15527,0
6.40053,6.40053,6.40053,0.01165,0.01165,0.01165,0.95593,11789.25586,11275.37109,0
6.50052,6.50052,6.50052,0.01151,0.01151,0.01151,0.95595,11789.25586,11275.53613,0
6.60051,6.60051,6.60051,0.01130,0.01130,0.01130,0.95596,11789.25586,11275.73828,0
6.70050,6.70050,6.70050,0.01112,0.01112,0.01112,0.95598,11789.25586,11275.92773,0
6.80049,6.80049,6.80049,0.01095,0.01095,0.01095,0.95599,11789.25586,11276.09961,0
6.90049,6.90049,6.90049,0.01079,0.01079,0.01079,0.95601,11789.25586,11276.27441,0
7.00048,7.00048,7.00048,0.01061,0.01061,0.01061,0.95602,11789.25586,11276.45312,0
7.10047,7.10047,7.10047,0.01039,0.01039,0.01039,0.95604,11789.25586,11276.64551,0
7.20047,7.20047,7.20047,0.01034,0.01034,0.01034,0.95605,11789.25586,11276.73926,0
7.30046,7.30046,7.30046,0.01022,0.01022,0.01022,0.95606,11789.25586,11276.87402,0
7.40045,7.40045,7.40045,0.00991,0.00991,0.00991,0.95608,11789.25586,11277.13477,0
7.50044,7.50044,7.50044,0.00986,0.00986,0.00986,0.95609,11789.25586,11277.22168,0
7.60044,7.60044,7.60044,0.00968,0.00968,0.00968,0.95610,11789.25586,11277.38965,0
7.70043,7.70043,7.70043,0.00958,0.00958,0.00958,0.95611,11789.25586,11277.50195,0
7.80043,7.80043,7.80043,0.00944,0.00944,0.00944,0.95612,11789.25586,11277.63965,0
7.90042,7.90042,7.90042,0.00934,0.00934,0.00934,0.95613,11789.25586,11277.75684,0
8.00041,8.00041,8.00041,0.00910,0.00910,0.00910,0.95615,11789.25586,11277.96289,0
8.10041,8.10041,8.10041,0.00909,0.00909,0.00909,0.95616,11789.25586,11278.01270,0
8.20040,8.20040,8.20040,0.00893,0.00893,0.00893,0.95617,11789.25586,11278.16602,0
8.30040,8.30040,8.30040,0.00879,0.00879,0.00879,0.95618,11789.25586,11278.29395,0
8.40040,8.40040,8.40040,0.00877,0.00877,0.00877,0.95619,11789.25586,11278.35156,0
8.50038,8.50038,8.50038,0.00850,0.00850,0.00850,0.95620,11789.25586,11278.56641,0
8.60038,8.60038,8.60038,0.00854,0.00854,0.00854,0.95621,11789.25586,11278.58789,0
8.70038,8.70038,8.70038,0.00830,0.00830,0.00830,0.95622,11789.25586,11278.77734,0
8.80037,8.80037,8.80037,0.00827,0.00827,0.00827,0.95623,11789.25586,11278.83496,0
8.90037,8.90037,8.90037,0.00827,0.00827,0.00827,0.95623,11789.25586,11278.87305,0
9.00036,9.00036,9.00036,0.00795,0.00795,0.00795,0.95625,11789.25586,11279.12891,0
9.10036,9.10036,9.10036,0.00800,0.00800,0.00800,0.95625,11789.25586,11279.12891,0
9.20035,9.20035,9.20035,0.00784,0.00784,0.00784,0.95626,11789.25586,11279.27441,0
9.30035,9.30035,9.30035,0.00777,0.00777,0.00777,0.95627,11789.25586,11279.34473,0
9.40035,9.40035,9.40035,0.00769,0.00769,0.00769,0.95628,11789.25586,11279.42480,0
9.50034,9.50034,9.50034,0.00758,0.00758,0.00758,0.95629,11789.25586,11279.54785,0
9.60034,9.60034,9.60034,0.00749,0.00749,0.00749,0.95629,11789.25586,11279.62402,0
9.70033,9.70033,9.70033,0.00739,0.00739,0.00739,0.95630,11789.25586,11279.73047,0
9.80033,9.80033,9.80033,0.00733,0.00733,0.00733,0.95631,11789.25586,11279.79785,0
9.90033,9.90033,9.90033,0.00726,0.00726,0.00726,0.95631,11789.25586,11279.87207,0
10.00032,10.00032,10.00032,0.00716,0.00716,0.00716,0.95632,11789.25586,11279.97461,0
10.10032,10.10032,10.10032,0.00710,0.00710,0.00710,0.95633,11789.25586,11280.03613,0
10.20031,10.20031,10.20031,0.00694,0.00694,0.00694,0.95634,11789.25586,11280.17090,0
10.30031,10.30031,10.30031,0.00693,0.00693,0.00693,0.95634,11789.25586,11280.21094,0
10.40031,10.40031,10.40031,0.00690,0.00690,0.00690,0.95635,11789.25586,11280.25195,0
10.50031,10.50031,10.50031,0.00675,0.00675,0.00675,0.95636,11789.25586,11280.37891,0
10.60030,10.60030,10.60030,0.00673,0.00673,0.00673,0.95636,11789.25586,11280.41309,0
10.70030,10.70030,10.70030,0.00657,0.00657,0.00657,0.95637,11789.25586,11280.54980,0
10.80030,10.80030,10.80030,0.00656,0.00656,0.00656,0.95637,11789.25586,11280.58691,0
10.90029,10.90029,10.90029,0.00649,0.00649,0.00649,0.95638,11789.25586,11280.64355,0
11.00029,11.00029,11.00029,0.00644,0.00644,0.00644,0.95639,11789.25586,11280.71777,0
11.10029,11.10029,11.10029,0.00633,0.00633,0.00633,0.95639,11789.25586,11280.79980,0
11.20028,11.20028,11.20028,0.00626,0.00626,0.00626,0.95640,11789.25586,11280.87988,0
11.30028,11.30028,11.30028,0.00623,0.00623,0.00623,0.95640,11789.25586,11280.91992,0
11.40028,11.40028,11.40028,0.00618,0.00618,0.00618,0.95641,11789.25586,11280.97559,0
11.50027,11.50027,11.50027,0.00608,0.00608,0.00608,0.95642,11789.25586,11281.06445,0
11.60027,11.60027,11.60027,0.00606,0.00606,0.00606,0.95642,11789.25586,11281.09570,0
11.70027,11.70027,11.70027,0.00593,0.00593,0.00593,0.95643,11789.25586,11281.20605,0
11.80027,11.80027,11.80027,0.00592,0.00592,0.00592,0.95643,11789.25586,11281.23828,0
11.90027,11.90027,11.90027,0.00592,0.00592,0.00592,0.95643,11789.25586,11281.25391,0
12.00026,12.00026,12.00026,0.00575,0.00575,0.00575,0.95644,11789.25586,11281.38867,0
12.10026,12.10026,12.10026,0.00580,0.00580,0.00580,0.95644,11789.25586,11281.36426,0
12.20025,12.20025,12.20025,0.00563,0.00563,0.00563,0.95645,11789.25586,11281.51465,0
12.30025,12.30025,12.30025,0.00562,0.00562,0.00562,0.95645,11789.25586,11281.52637,0
12.40025,12.40025,12.40025,0.00564,0.00564,0.00564,0.95646,11789.25586,11281.53906,0
12.50025,12.50025,12.50025,0.00547,0.00547,0.00547,0.95647,11789.25586,11281.67676,0
12.60025,12.60025,12.60025,0.00550,0.00550,0.00550,0.95647,11789.25586,11281.66992,0
12.70024,12.70024,12.70024,0.00540,0.00540,0.00540,0.95647,11789.25586,11281.75195,0
12.80024,12.80024,12.80024,0.00537,0.00537,0.00537,0.95648,11789.25586,11281.79980,0
12.90024,12.90024,12.90024,0.00537,0.00537,0.00537,0.95648,11789.25586,11281.80762,0
13.00024,13.00024,13.00024,0.00525,0.00525,0.00525,0.95649,11789.25586,11281.91406,0
13.10023,13.10023,13.10023,0.00523,0.00523,0.00523,0.95649,11789.25586,11281.92969,0
13.20023,13.20023,13.20023,0.00516,0.00516,0.00516,0.95650,11789.25586,11282.00977,0
13.30023,13.30023,13.30023,0.00513,0.00513,0.00513,0.95650,11789.25586,11282.03613,0
13.40023,13.40023,13.40023,0.00516,0.00516,0.00516,0.95650,11789.25586,11282.03027,0
13.50023,13.50023,13.50023,0.00497,0.00497,0.00497,0.95651,11789.25586,11282.17871,0
13.60023,13.60023,13.60023,0.00503,0.00503,0.00503,0.95651,11789.25586,11282.15527,0
13.70022,13.70022,13.70022,0.00491,0.00491,0.00491,0.95652,11789.25586,11282.24805,0
13.80022,13.80022,13.80022,0.00492,0.00492,0.00492,0.95652,11789.25586,11282.26367,0
13.90022,13.90022,13.90022,0.00491,0.00491,0.00491,0.95652,11789.25586,11282.27539,0
14.00022,14.00022,14.00022,0.00478,0.00478,0.00478,0.95653,11789.25586,11282.38379,0
14.10022,14.10022,14.10022,0.00481,0.00481,0.00481,0.95653,11789.25586,11282.37207,0
14.20021,14.20021,14.20021,0.00471,0.00471,0.00471,0.95653,11789.25586,11282.46094,0
14.30021,14.30021,14.30021,0.00471,0.00471,0.00471,0.95653,11789.25586,11282.46973,0
14.40021,14.40021,14.40021,0.00468,0.00468,0.00468,0.95654,11789.25586,11282.50293,0
14.50021,14.50021,14.50021,0.00458,0.00458,0.00458,0.95654,11789.25586,11282.58398,0
14.60021,14.60021,14.60021,0.00462,0.00462,0.00462,0.95654,11789.25586,11282.57324,0
14.70020,14.70020,14.70020,0.00452,0.00452,0.00452,0.95655,11789.25586,11282.65527,0
14.80020,14.80020,14.80020,0.00449,0.00449,0.00449,0.95655,11789.25586,11282.68457,0
14.90020,14.90020,14.90020,0.00452,0.00452,0.00452,0.95655,11789.25586,11282.67578,0
15.00020,15.00020,15.00020,0.00437,0.00437,0.00437,0.95656,11789.25586,11282.79199,0
15.10020,15.10020,15.10020,0.00444,0.00444,0.00444,0.95656,11789.25586,11282.75977,0
15.20019,15.20019,15.20019,0.00431,0.00431,0.00431,0.95657,11789.25586,11282.86523,0
15.30019,15.30019,15.30019,0.00432,0.00432,0.00432,0.95657,11789.25586,11282.87012,0
15.40019,15.40019,15.40019,0.00432,0.00432,0.00432,0.95657,11789.25586,11282.87598,0
15.50019,15.50019,15.50019,0.00423,0.00423,0.00423,0.95658,11789.25586,11282.95703,0
15.60019,15.60019,15.60019,0.00426,0.00426,0.00426,0.95657,11789.25586,11282.94043,0
15.70019,15.70019,15.70019,0.00414,0.00414,0.00414,0.95658,11789.25586,11283.03809,0
15.80019,15.80019,15.80019,0.00416,0.00416,0.00416,0.95658,11789.25586,11283.03027,0
15.90019,15.90019,15.90019,0.00424,0.00424,0.00424,0.95658,11789.25586,11282.97559,0
16.00018,16.00018,16.00018,0.00394,0.00394,0.00394,0.95660,11789.25586,11283.21289,0
16.10018,16.10018,16.10018,0.00404,0.00404,0.00404,0.95659,11789.25586,11283.15332,0
16.20018,16.20018,16.20018,0.00402,0.00402,0.00402,0.95659,11789.25586,11283.17090,0
16.30018,16.30018,16.30018,0.00404,0.00404,0.00404,0.95659,11789.25586,11283.16309,0
16.40018,16.40018,16.40018,0.00390,0.00390,0.00390,0.95660,11789.25586,11283.28320,0
16.50018,16.50018,16.50018,0.00392,0.00392,0.00392,0.95660,11789.25586,11283.27539,0
16.60018,16.60018,16.60018,0.00390,0.00390,0.00390,0.95660,11789.25586,11283.29980,0
16.70018,16.70018,16.70018,0.00386,0.00386,0.00386,0.95661,11789.25586,11283.32910,0
16.80018,16.80018,16.80018,0.00394,0.00394,0.00394,0.95660,11789.25586,11283.29297,0
16.90017,16.90017,16.90017,0.00371,0.00371,0.00371,0.95662,11789.25586,11283.46094,0
17.00017,17.00017,17.00017,0.00376,0.00376,0.00376,0.95662,11789.25586,11283.43066,0
17.10017,17.10017,17.10017,0.00375,0.00375,0.00375,0.95662,11789.25586,11283.45117,0
17.20017,17.20017,17.20017,0.00373,0.00373,0.00373,0.95662,11789.25586,11283.47070,0
17.30017,17.30017,17.30017,0.00378,0.00378,0.00378,0.95662,11789.25586,11283.44531,0
17.40016,17.40016,17.40016,0.00356,0.00356,0.00356,0.95663,11789.25586,11283.60352,0
17.50016,17.50016,17.50016,0.00364,0.00364,0.00364,0.95663,11789.25586,11283.57129,0
17.60016,17.60016,17.60016,0.00360,0.00360,0.00360,0.95663,11789.25586,11283.59473,0
17.70016,17.70016,17.70016,0.00358,0.00358,0.00358,0.95663,11789.25586,11283.61230,0
17.80017,17.80017,17.80017,0.00365,0.00365,0.00365,0.95663,11789.25586,11283.58105,0
17.90015,17.90015,17.90015,0.00343,0.00343,0.00343,0.95664,11789.25586,11283.73730,0
18.00016,18.00016,18.00016,0.00349,0.00349,0.00349,0.95664,11789.25586,11283.70898,0
18.10016,18.10016,18.10016,0.00348,0.00348,0.00348,0.95664,11789.25586,11283.72754,0
18.20016,18.20016,18.20016,0.00345,0.00345,0.00345,0.95664,11789.25586,11283.74609,0
18.30016,18.30016,18.30016,0.00351,0.00351,0.00351,0.95664,11789.25586,11283.71875,0
18.40015,18.40015,18.40015,0.00332,0.00332,0.00332,0.95665,11789.25586,11283.86621,0
18.50015,18.50015,18.50015,0.00336,0.00336,0.00336,0.95665,11789.25586,11283.84082,0
18.60015,18.60015,18.60015,0.00335,0.00335,0.00335,0.95665,11789.25586,11283.85449,0
18.70015,18.70015,18.70015,0.00332,0.00332,0.00332,0.95665,11789.25586,11283.87500,0
18.80015,18.80015,18.80015,0.00338,0.00338,0.00338,0.95665,11789.25586,11283.84668,0
18.90014,18.90014,18.90014,0.00320,0.00320,0.00320,0.95666,11789.25586,11283.98633,0
19.00014,19.00014,19.00014,0.00324,0.00324,0.00324,0.95666,11789.25586,11283.96094,0
19.10014,19.10014,19.10014,0.00323,0.00323,0.00323,0.95666,11789.25586,11283.97754,0
19.20014,19.20014,19.20014,0.00321,0.00321,0.00321,0.95666,11789.25586,11283.99512,0
19.30014,19.30014,19.30014,0.00326,0.00326,0.00326,0.95666,11789.25586,11283.96777,0
19.40013,19.40013,19.40013,0.00305,0.00305,0.00305,0.95667,11789.25586,11284.12402,0
19.50014,19.50014,19.50014,0.00320,0.00320,0.00320,0.95667,11789.25586,11284.04102,0
19.60013,19.60013,19.60013,0.00308,0.00308,0.00308,0.95667,11789.25586,11284.11133,0
19.70013,19.70013,19.70013,0.00310,0.00310,0.00310,0.95667,11789.25586,11284.11230,0
19.80013,19.80013,19.80013,0.00314,0.00314,0.00314,0.95667,11789.25586,11284.08691,0
19.90012,19.90012,19.90012,0.00295,0.00295,0.00295,0.95668,11789.25586,11284.23828,0
20.00013,20.00013,20.00013,0.00308,0.00308,0.00308,0.95668,11789.25586,11284.15625,0
20.10012,20.10012,20.10012,0.00298,0.00298,0.00298,0.95668,11789.25586,11284.21777,0
20.20012,20.20012,20.20012,0.00299,0.00299,0.00299,0.95668,11789.25586,11284.22266,0
20.30013,20.30013,20.30013,0.00301,0.00301,0.00301,0.95668,11789.25586,11284.21289,0
20.40012,20.40012,20.40012,0.00291,0.00291,0.00291,0.95669,11789.25586,11284.30176,0
20.50012,20.50012,20.50012,0.00294,0.00294,0.00294,0.95669,11789.25586,11284.27539,0
20.60012,20.60012,20.60012,0.00288,0.00288,0.00288,0.95669,11789.25586,11284.32715,0
20.70012,20.70012,20.70012,0.00289,0.00289,0.00289,0.95669,11789.25586,11284.32812,0
20.80012,20.80012,20.80012,0.00292,0.00292,0.00292,0.95669,11789.25586,11284.30078,0
20.90011,20.90011,20.90011,0.00276,0.00276,0.00276,0.95670,11789.25586,11284.43750,0
21.00012,21.00012,21.00012,0.00286,0.00286,0.00286,0.95670,11789.25586,11284.37305,0
21.10011,21.10011,21.10011,0.00278,0.00278,0.00278,0.95670,11789.25586,11284.42383,0
21.20011,21.20011,21.20011,0.00279,0.00279,0.00279,0.95670,11789.25586,11284.42285,0
21.30011,21.30011,21.30011,0.00282,0.00282,0.00282,0.95670,11789.25586,11284.41016,0
21.40011,21.40011,21.40011,0.00266,0.00266,0.00266,0.95671,11789.25586,11284.54395,0
21.50011,21.50011,21.50011,0.00277,0.00277,0.00277,0.95670,11789.25586,11284.46582,0
21.60011,21.60011,21.60011,0.00269,0.00269,0.00269,0.95671,11789.25586,11284.53027,0
21.70011,21.70011,21.70011,0.00269,0.00269,0.00269,0.95671,11789.25586,11284.52734,0
21.80011,21.80011,21.80011,0.00273,0.00273,0.00273,0.95671,11789.25586,11284.49414,0
21.90011,21.90011,21.90011,0.00257,0.00257,0.00257,0.95672,11789.25586,11284.63965,0
22.00011,22.00011,22.00011,0.00267,0.00267,0.00267,0.95671,11789.25586,11284.55566,0
22.10011,22.10011,22.10011,0.00260,0.00260,0.00260,0.95672,11789.25586,11284.62402,0
22.20011,22.20011,22.20011,0.00260,0.00260,0.00260,0.95672,11789.25586,11284.62109,0
22.30011,22.30011,22.30011,0.00264,0.00264,0.00264,0.95671,11789.25586,11284.59668,0
22.40011,22.40011,22.40011,0.00250,0.00250,0.00250,0.95672,11789.25586,11284.70898,0
22.50011,22.50011,22.50011,0.00254,0.00254,0.00254,0.95672,11789.25586,11284.68066,0
22.60011,22.60011,22.60011,0.00253,0.00253,0.00253,0.95672,11789.25586,11284.69043,0
22.70011,22.70011,22.70011,0.00252,0.00252,0.00252,0.95672,11789.25586,11284.70020,0
22.80011,22.80011,22.80011,0.00255,0.00255,0.00255,0.95672,11789.25586,11284.67383,0
22.90010,22.90010,22.90010,0.00242,0.00242,0.00242,0.95673,11789.25586,11284.79395,0
23.00010,23.00010,23.00010,0.00245,0.00245,0.00245,0.95673,11789.25586,11284.76758,0
23.10011,23.10011,23.10011,0.00245,0.00245,0.00245,0.95673,11789.25586,11284.77539,0
23.20011,23.20011,23.20011,0.00244,0.00244,0.00244,0.95673,11789.25586,11284.78613,0
23.30011,23.30011,23.30011,0.00247,0.00247,0.00247,0.95673,11789.25586,11284.75879,0
23.40010,23.40010,23.40010,0.00234,0.00234,0.00234,0.95674,11789.25586,11284.87793,0
23.50010,23.50010,23.50010,0.00237,0.00237,0.00237,0.95674,11789.25586,11284.85352,0
23.60010,23.60010,23.60010,0.00236,0.00236,0.00236,0.95674,11789.25586,11284.86133,0
23.70010,23.70010,23.70010,0.00236,0.00236,0.00236,0.95674,11789.25586,11284.86816,0
