x,y,z,vx,vy,vz,temperature,density,pressure,is_star
0.07241,0.07241,0.07241,1.92181,1.92181,1.92181,0.82696,11789.25586,9754.06543,0
0.11803,0.11803,0.11803,0.10506,0.10506,0.10506,0.92212,11789.25586,10876.56250,0
0.21366,0.21366,0.21366,0.26277,0.26277,0.26277,0.93021,11789.25586,10971.97363,0
0.31021,0.31021,0.31021,0.20727,0.20727,0.20727,0.93667,11789.25586,11048.12695,0
0.40810,0.40810,0.40810,0.16813,0.16813,0.16813,0.94062,11789.25586,11094.76758,0
0.50670,0.50670,0.50670,0.14069,0.14069,0.14069,0.94326,11789.25586,11125.88086,0
0.60571,0.60571,0.60571,0.12070,0.12070,0.12070,0.94513,11789.25586,11148.00684,0
0.70496,0.70496,0.70496,0.10550,0.10550,0.10550,0.94654,11789.25586,11164.56152,0
0.80439,0.80439,0.80439,0.09365,0.09365,0.09365,0.94762,11789.25586,11177.35059,0
0.90394,0.90394,0.90394,0.08414,0.08414,0.08414,0.94849,11789.25586,11187.54492,0
1.00357,1.00357,1.00357,0.07635,0.07635,0.07635,0.94919,11789.25586,11195.86230,0
1.10326,1.10326,1.10326,0.06984,0.06984,0.06984,0.94978,11789.25586,11202.77344,0
1.20300,1.20300,1.20300,0.06432,0.06432,0.06432,0.95027,11789.25586,11208.61133,0
1.30278,1.30278,1.30278,0.05965,0.05965,0.05965,0.95069,11789.25586,11213.56250,0
1.40258,1.40258,1.40258,0.05555,0.05555,0.05555,0.95106,11789.25586,11217.87793,0
1.50241,1.50241,1.50241,0.05194,0.05194,0.05194,0.95138,11789.25586,11221.66797,0
1.60227,1.60227,1.60227,0.04885,0.04885,0.04885,0.95166,11789.25586,11224.93848,0
1.70214,1.70214,1.70214,0.04604,0.04604,0.04604,0.95191,11789.25586,11227.88281,0
1.80202,1.80202,1.80202,0.04356,0.04356,0.04356,0.95213,11789.25586,11230.49609,0
1.90191,1.90191,1.90191,0.04123,0.04123,0.04123,0.95233,11789.25586,11232.90625,0
2.00182,2.00182,2.00182,0.03928,0.03928,0.03928,0.95251,11789.25586,11234.98633,0
2.10174,2.10174,2.10174,0.03743,0.03743,0.03743,0.95267,11789.25586,11236.92090,0
2.20166,2.20166,2.20166,0.03573,0.03573,0.03573,0.95282,11789.25586,11238.69629,0
2.30158,2.30158,2.30158,0.03418,0.03418,0.03418,0.95296,11789.25586,11240.31934,0
2.40152,2.40152,2.40152,0.03276,0.03276,0.03276,0.95309,11789.25586,11241.79688,0
2.50146,2.50146,2.50146,0.03148,0.03148,0.03148,0.95320,11789.25586,11243.15430,0
2.60140,2.60140,2.60140,0.03024,0.03024,0.03024,0.95331,11789.25586,11244.44043,0
2.70135,2.70135,2.70135,0.02913,0.02913,0.02913,0.95341,11789.25586,11245.60254,0
2.80130,2.80130,2.80130,0.02807,0.02807,0.02807,0.95350,11789.25586,11246.70703,0
2.90126,2.90126,2.90126,0.02712,0.02712,0.02712,0.95359,11789.25586,11247.70605,0
3.00121,3.00121,3.00121,0.02619,0.02619,0.02619,0.95367,11789.25586,11248.67285,0
3.10117,3.10117,3.10117,0.02534,0.02534,0.02534,0.95374,11789.25586,11249.56445,0
3.20114,3.20114,3.20114,0.02455,0.02455,0.02455,0.95381,11789.25586,11250.39062,0
3.30110,3.30110,3.30110,0.02375,0.02375,0.02375,0.95388,11789.25586,11251.20410,0
3.40107,3.40107,3.40107,0.02309,0.02309,0.02309,0.95394,11789.25586,11251.91504,0
3.50104,3.50104,3.50104,0.02238,0.02238,0.02238,0.95401,11789.25586,11252.64160,0
3.60101,3.60101,3.60101,0.02181,0.02181,0.02181,0.95406,11789.25586,11253.27246,0
3.70098,3.70098,3.70098,0.02110,0.02110,0.02110,0.95412,11789.25586,11253.96777,0
3.80095,3.80095,3.80095,0.02061,0.02061,0.02061,0.95416,11789.25586,11254.50586,0
3.90093,3.90093,3.90093,0.02009,0.02009,0.02009,0.95421,11789.25586,11255.05176,0
4.00090,4.00090,4.00090,0.01951,0.01951,0.01951,0.95426,11789.25586,11255.64453,0
4.10088,4.10088,4.10088,0.01901,0.01901,0.01901,0.95430,11789.25586,11256.15723,0
4.20086,4.20086,4.20086,0.01860,0.01860,0.01860,0.95434,11789.25586,11256.60352,0
4.30084,4.30084,4.30084,0.01814,0.01814,0.01814,0.95438,11789.25586,11257.07910,0
4.40082,4.40082,4.40082,0.01769,0.01769,0.01769,0.95442,11789.25586,11257.54004,0
4.50080,4.50080,4.50080,0.01730,0.01730,0.01730,0.95446,11789.25586,11257.95312,0
4.60078,4.60078,4.60078,0.01689,0.01689,0.01689,0.95449,11789.25586,11258.37305,0
4.70077,4.70077,4.70077,0.01655,0.01655,0.01655,0.95452,11789.25586,11258.74609,0
4.80075,4.80075,4.80075,0.01616,0.01616,0.01616,0.95456,11789.25586,11259.13574,0
4.90073,4.90073,4.90073,0.01584,0.01584,0.01584,0.95459,11789.25586,11259.48633,0
5.00072,5.00072,5.00072,0.01550,0.01550,0.01550,0.95462,11789.25586,11259.83105,0
5.10070,5.10070,5.10070,0.01517,0.01517,0.01517,0.95464,11789.25586,11260.17090,0
5.20069,5.20069,5.20069,0.01488,0.01488,0.01488,0.95467,11789.25586,11260.47754,0
5.30067,5.30067,5.30067,0.01457,0.01457,0.01457,0.95470,11789.25586,11260.79199,0
5.40066,5.40066,5.40066,0.01434,0.01434,0.01434,0.95472,11789.25586,11261.06055,0
5.50064,5.50064,5.50064,0.01394,0.01394,0.01394,0.95475,11789.25586,11261.42578,0
5.60064,5.60064,5.60064,0.01377,0.01377,0.01377,0.95477,11789.25586,11261.64355,0
5.70063,5.70063,5.70063,0.01353,0.01353,0.01353,0.95479,11789.25586,11261.88965,0
5.80061,5.80061,5.80061,0.01327,0.01327,0.01327,0.95481,11789.25586,11262.16016,0
5.90060,5.90060,5.90060,0.01300,0.01300,0.01300,0.95484,11789.25586,11262.42578,0
6.00059,6.00059,6.00059,0.01279,0.01279,0.01279,0.95486,11789.25586,11262.66406,0
6.10058,6.10058,6.10058,0.01254,0.01254,0.01254,0.95488,11789.25586,11262.90430,0
6.20057,6.20057,6.20057,0.01239,0.01239,0.01239,0.95489,11789.25586,11263.08789,0
6.30056,6.30056,6.30056,0.01213,0.01213,0.01213,0.95491,11789.25586,11263.33789,0
6.40055,6.40055,6.40055,0.01191,0.01191,0.01191,0.95493,11789.25586,11263.56445,0
6.50054,6.50054,6.50054,0.01177,0.01177,0.01177,0.95495,11789.25586,11263.73438,0
6.60053,6.60053,6.60053,0.01155,0.01155,0.01155,0.95496,11789.25586,11263.94629,0
6.70053,6.70053,6.70053,0.01136,0.01136,0.01136,0.95498,11789.25586,11264.14355,0
6.80052,6.80052,6.80052,0.01118,0.01118,0.01118,0.95500,11789.25586,11264.32422,0
6.90051,6.90051,6.90051,0.01102,0.01102,0.01102,0.95501,11789.25586,11264.50586,0
7.00050,7.00050,7.00050,0.01084,0.01084,0.01084,0.95503,11789.25586,11264.69141,0
7.10049,7.10049,7.10049,0.01061,0.01061,0.01061,0.95504,11789.25586,11264.89453,0
7.20049,7.20049,7.20049,0.01057,0.01057,0.01057,0.95505,11789.25586,11264.99121,0
7.30048,7.30048,7.30048,0.01044,0.01044,0.01044,0.95506,11789.25586,11265.13086,0
7.40047,7.40047,7.40047,0.01012,0.01012,0.01012,0.95509,11789.25586,11265.40527,0
7.50046,7.50046,7.50046,0.01008,0.01008,0.01008,0.95510,11789.25586,11265.49512,0
7.60046,7.60046,7.60046,0.00989,0.00989,0.00989,0.95511,11789.25586,11265.67090,0
7.70045,7.70045,7.70045,0.00979,0.00979,0.00979,0.95512,11789.25586,11265.78711,0
7.80045,7.80045,7.80045,0.00965,0.00965,0.00965,0.95513,11789.25586,11265.93066,0
7.90044,7.90044,7.90044,0.00955,0.00955,0.00955,0.95514,11789.25586,11266.05273,0
8.00043,8.00043,8.00043,0.00930,0.00930,0.00930,0.95516,11789.25586,11266.27051,0
8.10043,8.10043,8.10043,0.00929,0.00929,0.00929,0.95517,11789.25586,11266.32031,0
8.20042,8.20042,8.20042,0.00912,0.00912,0.00912,0.95518,11789.25586,11266.48047,0
8.30042,8.30042,8.30042,0.00898,0.00898,0.00898,0.95519,11789.25586,11266.61523,0
8.40041,8.40041,8.40041,0.00896,0.00896,0.00896,0.95520,11789.25586,11266.67285,0
8.50040,8.50040,8.50040,0.00868,0.00868,0.00868,0.95521,11789.25586,11266.90039,0
8.60040,8.60040,8.60040,0.00872,0.00872,0.00872,0.95522,11789.25586,11266.91992,0
8.70039,8.70039,8.70039,0.00848,0.00848,0.00848,0.95523,11789.25586,11267.11914,0
8.80039,8.80039,8.80039,0.00845,0.00845,0.00845,0.95524,11789.25586,11267.17871,0
8.90039,8.90039,8.90039,0.00845,0.00845,0.00845,0.95524,11789.25586,11267.21680,0
9.00038,9.00038,9.00038,0.00812,0.00812,0.00812,0.95526,11789.25586,11267.48730,0
9.10038,9.10038,9.10038,0.00817,0.00817,0.00817,0.95526,11789.25586,11267.48535,0
9.20037,9.20037,9.20037,0.00801,0.00801,0.00801,0.95528,11789.25586,11267.63770,0
9.30037,9.30037,9.30037,0.00794,0.00794,0.00794,0.95528,11789.25586,11267.71191,0
9.40036,9.40036,9.40036,0.00786,0.00786,0.00786,0.95529,11789.25586,11267.79590,0
9.50036,9.50036,9.50036,0.00774,0.00774,0.00774,0.95530,11789.25586,11267.92383,0
9.60035,9.60035,9.60035,0.00765,0.00765,0.00765,0.95531,11789.25586,11268.00391,0
9.70035,9.70035,9.70035,0.00755,0.00755,0.00755,0.95532,11789.25586,11268.11523,0
9.80035,9.80035,9.80035,0.00749,0.00749,0.00749,0.95532,11789.25586,11268.18457,0
9.90034,9.90034,9.90034,0.00741,0.00741,0.00741,0.95533,11789.25586,11268.26172,0
10.00034,10.00034,10.00034,0.00731,0.00731,0.00731,0.95534,11789.25586,11268.36914,0
10.10033,10.10033,10.10033,0.00725,0.00725,0.00725,0.95534,11789.25586,11268.43164,0
10.20033,10.20033,10.20033,0.00709,0.00709,0.00709,0.95536,11789.25586,11268.57422,0
10.30033,10.30033,10.30033,0.00708,0.00708,0.00708,0.95536,11789.25586,11268.61523,0
10.40033,10.40033,10.40033,0.00705,0.00705,0.00705,0.95536,11789.25586,11268.65723,0
10.50032,10.50032,10.50032,0.00689,0.00689,0.00689,0.95537,11789.25586,11268.79199,0
10.60032,10.60032,10.60032,0.00688,0.00688,0.00688,0.95538,11789.25586,11268.82520,0
10.70031,10.70031,10.70031,0.00672,0.00672,0.00672,0.95539,11789.25586,11268.96973,0
10.80031,10.80031,10.80031,0.00670,0.00670,0.00670,0.95539,11789.25586,11269.00879,0
10.90031,10.90031,10.90031,0.00663,0.00663,0.00663,0.95540,11789.25586,11269.06738,0
11.00030,11.00030,11.00030,0.00658,0.00658,0.00658,0.95540,11789.25586,11269.14355,0
11.10030,11.10030,11.10030,0.00647,0.00647,0.00647,0.95541,11789.25586,11269.23047,0
11.20030,11.20030,11.20030,0.00640,0.00640,0.00640,0.95542,11789.25586,11269.31445,0
11.30029,11.30029,11.30029,0.00637,0.00637,0.00637,0.95542,11789.25586,11269.35645,0
11.40029,11.40029,11.40029,0.00631,0.00631,0.00631,0.95543,11789.25586,11269.41309,0
11.50029,11.50029,11.50029,0.00621,0.00621,0.00621,0.95544,11789.25586,11269.50781,0
11.60029,11.60029,11.60029,0.00620,0.00620,0.00620,0.95544,11789.25586,11269.54004,0
11.70028,11.70028,11.70028,0.00605,0.00605,0.00605,0.95545,11789.25586,11269.65625,0
11.80028,11.80028,11.80028,0.00605,0.00605,0.00605,0.95545,11789.25586,11269.68750,0
11.90028,11.90028,11.90028,0.00604,0.00604,0.00604,0.95545,11789.25586,11269.70410,0
12.00027,12.00027,12.00027,0.00587,0.00587,0.00587,0.95546,11789.25586,11269.84473,0
12.10027,12.10027,12.10027,0.00593,0.00593,0.00593,0.95546,11789.25586,11269.81934,0
12.20027,12.20027,12.20027,0.00575,0.00575,0.00575,0.95548,11789.25586,11269.97559,0
12.30027,12.30027,12.30027,0.00575,0.00575,0.00575,0.95548,11789.25586,11269.98828,0
12.40027,12.40027,12.40027,0.00576,0.00576,0.00576,0.95548,11789.25586,11270.00098,0
12.50026,12.50026,12.50026,0.00558,0.00558,0.00558,0.95549,11789.25586,11270.14551,0
12.60026,12.60026,12.60026,0.00562,0.00562,0.00562,0.95549,11789.25586,11270.13770,0
12.70025,12.70025,12.70025,0.00552,0.00552,0.00552,0.95550,11789.25586,11270.22559,0
12.80025,12.80025,12.80025,0.00548,0.00548,0.00548,0.95550,11789.25586,11270.27441,0
12.90025,12.90025,12.90025,0.00549,0.00549,0.00549,0.95550,11789.25586,11270.28125,0
13.00025,13.00025,13.00025,0.00536,0.00536,0.00536,0.95551,11789.25586,11270.39355,0
13.10025,13.10025,13.10025,0.00534,0.00534,0.00534,0.95551,11789.25586,11270.41113,0
13.20024,13.20024,13.20024,0.00528,0.00528,0.00528,0.95552,11789.25586,11270.49316,0
13.30024,13.30024,13.30024,0.00524,0.00524,0.00524,0.95552,11789.25586,11270.52148,0
13.40024,13.40024,13.40024,0.00527,0.00527,0.00527,0.95552,11789.25586,11270.51367,0
13.50023,13.50023,13.50023,0.00508,0.00508,0.00508,0.95553,11789.25586,11270.67090,0
13.60024,13.60024,13.60024,0.00514,0.00514,0.00514,0.95553,11789.25586,11270.64453,0
13.70023,13.70023,13.70023,0.00502,0.00502,0.00502,0.95554,11789.25586,11270.74316,0
13.80023,13.80023,13.80023,0.00502,0.00502,0.00502,0.95554,11789.25586,11270.75879,0
13.90023,13.90023,13.90023,0.00502,0.00502,0.00502,0.95554,11789.25586,11270.77051,0
14.00023,14.00023,14.00023,0.00488,0.00488,0.00488,0.95555,11789.25586,11270.88477,0
14.10023,14.10023,14.10023,0.00491,0.00491,0.00491,0.95555,11789.25586,11270.87207,0
14.20022,14.20022,14.20022,0.00481,0.00481,0.00481,0.95556,11789.25586,11270.96582,0
14.30022,14.30022,14.30022,0.00482,0.00482,0.00482,0.95556,11789.25586,11270.97363,0
14.40022,14.40022,14.40022,0.00479,0.00479,0.00479,0.95556,11789.25586,11271.00781,0
14.50022,14.50022,14.50022,0.00467,0.00467,0.00467,0.95557,11789.25586,11271.09375,0
14.60022,14.60022,14.60022,0.00473,0.00473,0.00473,0.95557,11789.25586,11271.08105,0
14.70021,14.70021,14.70021,0.00461,0.00461,0.00461,0.95558,11789.25586,11271.16797,0
14.80021,14.80021,14.80021,0.00459,0.00459,0.00459,0.95558,11789.25586,11271.19824,0
14.90021,14.90021,14.90021,0.00462,0.00462,0.00462,0.95558,11789.25586,11271.18848,0
15.00021,15.00021,15.00021,0.00447,0.00447,0.00447,0.95559,11789.25586,11271.31055,0
15.10021,15.10021,15.10021,0.00454,0.00454,0.00454,0.95559,11789.25586,11271.27539,0
15.20020,15.20020,15.20020,0.00440,0.00440,0.00440,0.95559,11789.25586,11271.38672,0
15.30020,15.30020,15.30020,0.00441,0.00441,0.00441,0.95560,11789.25586,11271.39062,0
15.40020,15.40020,15.40020,0.00441,0.00441,0.00441,0.95560,11789.25586,11271.39648,0
15.50020,15.50020,15.50020,0.00432,0.00432,0.00432,0.95560,11789.25586,11271.48145,0
15.60020,15.60020,15.60020,0.00435,0.00435,0.00435,0.95560,11789.25586,11271.46387,0
15.70019,15.70019,15.70019,0.00422,0.00422,0.00422,0.95561,11789.25586,11271.56641,0
15.80019,15.80019,15.80019,0.00425,0.00425,0.00425,0.95561,11789.25586,11271.55957,0
15.90020,15.90020,15.90020,0.00434,0.00434,0.00434,0.95560,11789.25586,11271.50000,0
16.00019,16.00019,16.00019,0.00403,0.00403,0.00403,0.95563,11789.25586,11271.75098,0
16.10019,16.10019,16.10019,0.00413,0.00413,0.00413,0.95562,11789.25586,11271.68652,0
16.20019,16.20019,16.20019,0.00411,0.00411,0.00411,0.95562,11789.25586,11271.70508,0
16.30019,16.30019,16.30019,0.00413,0.00413,0.00413,0.95562,11789.25586,11271.69727,0
16.40018,16.40018,16.40018,0.00398,0.00398,0.00398,0.95563,11789.25586,11271.82227,0
16.50019,16.50019,16.50019,0.00400,0.00400,0.00400,0.95563,11789.25586,11271.81445,0
16.60019,16.60019,16.60019,0.00399,0.00399,0.00399,0.95563,11789.25586,11271.83984,0
16.70018,16.70018,16.70018,0.00394,0.00394,0.00394,0.95564,11789.25586,11271.87109,0
16.80019,16.80019,16.80019,0.00402,0.00402,0.00402,0.95563,11789.25586,11271.83203,0
16.90018,16.90018,16.90018,0.00379,0.00379,0.00379,0.95565,11789.25586,11272.00977,0
17.00018,17.00018,17.00018,0.00384,0.00384,0.00384,0.95564,11789.25586,11271.97754,0
17.10018,17.10018,17.10018,0.00383,0.00383,0.00383,0.95565,11789.25586,11271.99805,0
17.20018,17.20018,17.20018,0.00381,0.00381,0.00381,0.95565,11789.25586,11272.01953,0
17.30018,17.30018,17.30018,0.00386,0.00386,0.00386,0.95565,11789.25586,11271.99023,0
17.40017,17.40017,17.40017,0.00364,0.00364,0.00364,0.95566,11789.25586,11272.15820,0
17.50017,17.50017,17.50017,0.00372,0.00372,0.00372,0.95566,11789.25586,11272.12305,0
17.60017,17.60017,17.60017,0.00368,0.00368,0.00368,0.95566,11789.25586,11272.14844,0
17.70017,17.70017,17.70017,0.00366,0.00366,0.00366,0.95566,11789.25586,11272.16699,0
17.80017,17.80017,17.80017,0.00374,0.00374,0.00374,0.95566,11789.25586,11272.13184,0
17.90016,17.90016,17.90016,0.00350,0.00350,0.00350,0.95567,11789.25586,11272.29980,0
18.00016,18.00016,18.00016,0.00357,0.00357,0.00357,0.95567,11789.25586,11272.26855,0
18.10016,18.10016,18.10016,0.00356,0.00356,0.00356,0.95567,11789.25586,11272.28711,0
18.20016,18.20016,18.20016,0.00352,0.00352,0.00352,0.95567,11789.25586,11272.30664,0
18.30017,18.30017,18.30017,0.00359,0.00359,0.00359,0.95567,11789.25586,11272.27637,0
18.40016,18.40016,18.40016,0.00339,0.00339,0.00339,0.95568,11789.25586,11272.43262,0
18.50016,18.50016,18.50016,0.00343,0.00343,0.00343,0.95568,11789.25586,11272.40625,0
18.60016,18.60016,18.60016,0.00343,0.00343,0.00343,0.95568,11789.25586,11272.41992,0
18.70016,18.70016,18.70016,0.00339,0.00339,0.00339,0.95568,11789.25586,11272.44141,0
18.80016,18.80016,18.80016,0.00346,0.00346,0.00346,0.95568,11789.25586,11272.41113,0
18.90015,18.90015,18.90015,0.00326,0.00326,0.00326,0.95569,11789.25586,11272.55859,0
19.00015,19.00015,19.00015,0.00331,0.00331,0.00331,0.95569,11789.25586,11272.53125,0
19.10015,19.10015,19.10015,0.00330,0.00330,0.00330,0.95569,11789.25586,11272.54883,0
19.20015,19.20015,19.20015,0.00328,0.00328,0.00328,0.95569,11789.25586,11272.56641,0
19.30015,19.30015,19.30015,0.00333,0.00333,0.00333,0.95569,11789.25586,11272.53711,0
19.40014,19.40014,19.40014,0.00311,0.00311,0.00311,0.95571,11789.25586,11272.70215,0
19.50015,19.50015,19.50015,0.00327,0.00327,0.00327,0.95570,11789.25586,11272.61328,0
19.60014,19.60014,19.60014,0.00314,0.00314,0.00314,0.95571,11789.25586,11272.68848,0
19.70014,19.70014,19.70014,0.00317,0.00317,0.00317,0.95571,11789.25586,11272.68750,0
19.80014,19.80014,19.80014,0.00321,0.00321,0.00321,0.95570,11789.25586,11272.66113,0
19.90013,19.90013,19.90013,0.00301,0.00301,0.00301,0.95572,11789.25586,11272.82031,0
20.00014,20.00014,20.00014,0.00315,0.00315,0.00315,0.95571,11789.25586,11272.73242,0
20.10013,20.10013,20.10013,0.00304,0.00304,0.00304,0.95571,11789.25586,11272.79883,0
20.20013,20.20013,20.20013,0.00305,0.00305,0.00305,0.95571,11789.25586,11272.80273,0
20.30013,20.30013,20.30013,0.00307,0.00307,0.00307,0.95571,11789.25586,11272.79199,0
20.40013,20.40013,20.40013,0.00297,0.00297,0.00297,0.95572,11789.25586,11272.88672,0
20.50013,20.50013,20.50013,0.00301,0.00301,0.00301,0.95572,11789.25586,11272.85742,0
20.60012,20.60012,20.60012,0.00294,0.00294,0.00294,0.95572,11789.25586,11272.91309,0
20.70012,20.70012,20.70012,0.00295,0.00295,0.00295,0.95572,11789.25586,11272.91309,0
20.80013,20.80013,20.80013,0.00299,0.00299,0.00299,0.95572,11789.25586,11272.88477,0
20.90012,20.90012,20.90012,0.00281,0.00281,0.00281,0.95573,11789.25586,11273.02832,0
21.00012,21.00012,21.00012,0.00293,0.00293,0.00293,0.95573,11789.25586,11272.95996,0
21.10012,21.10012,21.10012,0.00284,0.00284,0.00284,0.95573,11789.25586,11273.01465,0
21.20012,21.20012,21.20012,0.00285,0.00285,0.00285,0.95573,11789.25586,11273.01270,0
21.30012,21.30012,21.30012,0.00288,0.00288,0.00288,0.95573,11789.25586,11272.99707,0
21.40011,21.40011,21.40011,0.00272,0.00272,0.00272,0.95574,11789.25586,11273.13867,0
21.50012,21.50012,21.50012,0.00283,0.00283,0.00283,0.95574,11789.25586,11273.05664,0
21.60011,21.60011,21.60011,0.00274,0.00274,0.00274,0.95574,11789.25586,11273.12500,0
21.70012,21.70012,21.70012,0.00275,0.00275,0.00275,0.95574,11789.25586,11273.12109,0
21.80012,21.80012,21.80012,0.00279,0.00279,0.00279,0.95574,11789.25586,11273.08594,0
21.90011,21.90011,21.90011,0.00263,0.00263,0.00263,0.95575,11789.25586,11273.23926,0
22.00011,22.00011,22.00011,0.00273,0.00273,0.00273,0.95574,11789.25586,11273.15039,0
22.10011,22.10011,22.10011,0.00265,0.00265,0.00265,0.95575,11789.25586,11273.22266,0
22.20011,22.20011,22.20011,0.00266,0.00266,0.00266,0.95575,11789.25586,11273.21875,0
22.30011,22.30011,22.30011,0.00270,0.00270,0.00270,0.95575,11789.25586,11273.19238,0
22.40011,22.40011,22.40011,0.00256,0.00256,0.00256,0.95576,11789.25586,11273.31152,0
22.50011,22.50011,22.50011,0.00259,0.00259,0.00259,0.95576,11789.25586,11273.28223,0
22.60011,22.60011,22.60011,0.00258,0.00258,0.00258,0.95576,11789.25586,11273.29199,0
22.70011,22.70011,22.70011,0.00258,0.00258,0.00258,0.95576,11789.25586,11273.30176,0
22.80011,22.80011,22.80011,0.00261,0.00261,0.00261,0.95575,11789.25586,11273.27344,0
22.90011,22.90011,22.90011,0.00247,0.00247,0.00247,0.95577,11789.25586,11273.40039,0
23.00011,23.00011,23.00011,0.00251,0.00251,0.00251,0.95576,11789.25586,11273.37207,0
23.10011,23.10011,23.10011,0.00250,0.00250,0.00250,0.95576,11789.25586,11273.38086,0
23.20011,23.20011,23.20011,0.00249,0.00249,0.00249,0.95576,11789.25586,11273.39160,0
23.30011,23.30011,23.30011,0.00253,0.00253,0.00253,0.95576,11789.25586,11273.36328,0
23.40011,23.40011,23.40011,0.00239,0.00239,0.00239,0.95577,11789.25586,11273.48828,0
23.50011,23.50011,23.50011,0.00242,0.00242,0.00242,0.95577,11789.25586,11273.46191,0
23.60011,23.60011,23.60011,0.00242,0.00242,0.00242,0.95577,11789.25586,11273.46973,0
23.70011,23.70011,23.70011,0.00241,0.00241,0.00241,0.95577,11789.25586,11273.47754,0
