x,y,z,vx,vy,vz,temperature,density,pressure,is_star
0.04780,0.04780,0.04780,1.37555,1.37555,1.37555,0.87529,11789.25586,10324.23438,0
0.11477,0.11477,0.11477,0.28904,0.28904,0.28904,0.93514,11789.25586,11030.15918,0
0.20987,0.20987,0.20987,0.23825,0.23825,0.23825,0.94435,11789.25586,11138.70020,0
0.30727,0.30727,0.30727,0.18109,0.18109,0.18109,0.94928,11789.25586,11196.86621,0
0.40574,0.40574,0.40574,0.14484,0.14484,0.14484,0.95220,11789.25586,11231.31152,0
0.50473,0.50473,0.50473,0.12031,0.12031,0.12031,0.95412,11789.25586,11253.96094,0
0.60402,0.60402,0.60402,0.10276,0.10276,0.10276,0.95547,11789.25586,11269.94336,0
0.70349,0.70349,0.70349,0.08956,0.08956,0.08956,0.95648,11789.25586,11281.83398,0
0.80309,0.80309,0.80309,0.07933,0.07933,0.07933,0.95726,11789.25586,11290.99023,0
0.90276,0.90276,0.90276,0.07117,0.07117,0.07117,0.95787,11789.25586,11298.27051,0
1.00250,1.00250,1.00250,0.06450,0.06450,0.06450,0.95838,11789.25586,11304.20020,0
1.10228,1.10228,1.10228,0.05895,0.05895,0.05895,0.95879,11789.25586,11309.11719,0
1.20210,1.20210,1.20210,0.05426,0.05426,0.05426,0.95915,11789.25586,11313.26465,0
1.30195,1.30195,1.30195,0.05028,0.05028,0.05028,0.95944,11789.25586,11316.78418,0
1.40181,1.40181,1.40181,0.04681,0.04681,0.04681,0.95970,11789.25586,11319.84570,0
1.50169,1.50169,1.50169,0.04375,0.04375,0.04375,0.95993,11789.25586,11322.52734,0
1.60159,1.60159,1.60159,0.04113,0.04113,0.04113,0.96013,11789.25586,11324.85059,0
1.70150,1.70150,1.70150,0.03876,0.03876,0.03876,0.96030,11789.25586,11326.93457,0
1.80142,1.80142,1.80142,0.03666,0.03666,0.03666,0.96046,11789.25586,11328.78711,0
1.90134,1.90134,1.90134,0.03470,0.03470,0.03470,0.96061,11789.25586,11330.48535,0
2.00128,2.00128,2.00128,0.03304,0.03304,0.03304,0.96073,11789.25586,11331.96582,0
2.10121,2.10121,2.10121,0.03148,0.03148,0.03148,0.96085,11789.25586,11333.32910,0
2.20116,2.20116,2.20116,0.03005,0.03005,0.03005,0.96095,11789.25586,11334.58398,0
2.30111,2.30111,2.30111,0.02874,0.02874,0.02874,0.96105,11789.25586,11335.73438,0
2.40106,2.40106,2.40106,0.02755,0.02755,0.02755,0.96114,11789.25586,11336.77832,0
2.50102,2.50102,2.50102,0.02646,0.02646,0.02646,0.96122,11789.25586,11337.73730,0
2.60098,2.60098,2.60098,0.02542,0.02542,0.02542,0.96130,11789.25586,11338.64551,0
2.70094,2.70094,2.70094,0.02449,0.02449,0.02449,0.96137,11789.25586,11339.46777,0
2.80091,2.80091,2.80091,0.02359,0.02359,0.02359,0.96143,11789.25586,11340.24414,0
2.90088,2.90088,2.90088,0.02279,0.02279,0.02279,0.96149,11789.25586,11340.95312,0
3.00085,3.00085,3.00085,0.02201,0.02201,0.02201,0.96155,11789.25586,11341.63574,0
3.10082,3.10082,3.10082,0.02129,0.02129,0.02129,0.96160,11789.25586,11342.26465,0
3.20079,3.20079,3.20079,0.02063,0.02063,0.02063,0.96165,11789.25586,11342.84766,0
3.30077,3.30077,3.30077,0.01997,0.01997,0.01997,0.96170,11789.25586,11343.42188,0
3.40075,3.40075,3.40075,0.01940,0.01940,0.01940,0.96174,11789.25586,11343.92480,0
3.50073,3.50073,3.50073,0.01881,0.01881,0.01881,0.96179,11789.25586,11344.43555,0
3.60071,3.60071,3.60071,0.01831,0.01831,0.01831,0.96183,11789.25586,11344.88672,0
3.70068,3.70068,3.70068,0.01774,0.01774,0.01774,0.96187,11789.25586,11345.36719,0
3.80067,3.80067,3.80067,0.01731,0.01731,0.01731,0.96190,11789.25586,11345.75488,0
3.90065,3.90065,3.90065,0.01687,0.01687,0.01687,0.96193,11789.25586,11346.14062,0
4.00063,4.00063,4.00063,0.01639,0.01639,0.01639,0.96197,11789.25586,11346.55664,0
4.10062,4.10062,4.10062,0.01597,0.01597,0.01597,0.96200,11789.25586,11346.91602,0
4.20060,4.20060,4.20060,0.01562,0.01562,0.01562,0.96202,11789.25586,11347.23242,0
4.30059,4.30059,4.30059,0.01524,0.01524,0.01524,0.96205,11789.25586,11347.57129,0
4.40057,4.40057,4.40057,0.01486,0.01486,0.01486,0.96208,11789.25586,11347.89258,0
4.50056,4.50056,4.50056,0.01453,0.01453,0.01453,0.96211,11789.25586,11348.18359,0
4.60055,4.60055,4.60055,0.01419,0.01419,0.01419,0.96213,11789.25586,11348.47949,0
4.70054,4.70054,4.70054,0.01390,0.01390,0.01390,0.96215,11789.25586,11348.74805,0
4.80052,4.80052,4.80052,0.01358,0.01358,0.01358,0.96218,11789.25586,11349.01758,0
4.90051,4.90051,4.90051,0.01330,0.01330,0.01330,0.96220,11789.25586,11349.27051,0
5.00050,5.00050,5.00050,0.01302,0.01302,0.01302,0.96222,11789.25586,11349.51074,0
5.10049,5.10049,5.10049,0.01274,0.01274,0.01274,0.96224,11789.25586,11349.75000,0
5.20048,5.20048,5.20048,0.01249,0.01249,0.01249,0.96226,11789.25586,11349.96582,0
5.30047,5.30047,5.30047,0.01224,0.01224,0.01224,0.96228,11789.25586,11350.18652,0
5.40046,5.40046,5.40046,0.01203,0.01203,0.01203,0.96229,11789.25586,11350.38086,0
5.50045,5.50045,5.50045,0.01172,0.01172,0.01172,0.96231,11789.25586,11350.62793,0
5.60045,5.60045,5.60045,0.01156,0.01156,0.01156,0.96233,11789.25586,11350.79004,0
5.70044,5.70044,5.70044,0.01136,0.01136,0.01136,0.96234,11789.25586,11350.96289,0
5.80043,5.80043,5.80043,0.01114,0.01114,0.01114,0.96236,11789.25586,11351.15234,0
5.90042,5.90042,5.90042,0.01092,0.01092,0.01092,0.96237,11789.25586,11351.33984,0
6.00041,6.00041,6.00041,0.01074,0.01074,0.01074,0.96239,11789.25586,11351.51074,0
6.10041,6.10041,6.10041,0.01054,0.01054,0.01054,0.96240,11789.25586,11351.67578,0
6.20040,6.20040,6.20040,0.01040,0.01040,0.01040,0.96241,11789.25586,11351.80957,0
6.30039,6.30039,6.30039,0.01019,0.01019,0.01019,0.96243,11789.25586,11351.98340,0
6.40038,6.40038,6.40038,0.01000,0.01000,0.01000,0.96244,11789.25586,11352.14062,0
6.50038,6.50038,6.50038,0.00987,0.00987,0.00987,0.96245,11789.25586,11352.26562,0
6.60037,6.60037,6.60037,0.00970,0.00970,0.00970,0.96246,11789.25586,11352.41211,0
6.70037,6.70037,6.70037,0.00954,0.00954,0.00954,0.96248,11789.25586,11352.54980,0
6.80036,6.80036,6.80036,0.00940,0.00940,0.00940,0.96249,11789.25586,11352.67773,0
6.90036,6.90036,6.90036,0.00925,0.00925,0.00925,0.96250,11789.25586,11352.80957,0
7.00035,7.00035,7.00035,0.00910,0.00910,0.00910,0.96251,11789.25586,11352.93945,0
7.10034,7.10034,7.10034,0.00893,0.00893,0.00893,0.96252,11789.25586,11353.07520,0
7.20034,7.20034,7.20034,0.00887,0.00887,0.00887,0.96253,11789.25586,11353.15137,0
7.30034,7.30034,7.30034,0.00875,0.00875,0.00875,0.96254,11789.25586,11353.25391,0
7.40033,7.40033,7.40033,0.00851,0.00851,0.00851,0.96255,11789.25586,11353.43457,0
7.50033,7.50033,7.50033,0.00845,0.00845,0.00845,0.96256,11789.25586,11353.50781,0
7.60032,7.60032,7.60032,0.00831,0.00831,0.00831,0.96257,11789.25586,11353.62695,0
7.70032,7.70032,7.70032,0.00822,0.00822,0.00822,0.96257,11789.25586,11353.71289,0
7.80031,7.80031,7.80031,0.00810,0.00810,0.00810,0.96258,11789.25586,11353.81152,0
7.90031,7.90031,7.90031,0.00801,0.00801,0.00801,0.96259,11789.25586,11353.90234,0
8.00030,8.00030,8.00030,0.00782,0.00782,0.00782,0.96260,11789.25586,11354.04102,0
8.10030,8.10030,8.10030,0.00779,0.00779,0.00779,0.96261,11789.25586,11354.08984,0
8.20030,8.20030,8.20030,0.00766,0.00766,0.00766,0.96262,11789.25586,11354.20020,0
8.30029,8.30029,8.30029,0.00754,0.00754,0.00754,0.96262,11789.25586,11354.29199,0
8.40029,8.40029,8.40029,0.00751,0.00751,0.00751,0.96263,11789.25586,11354.34180,0
8.50028,8.50028,8.50028,0.00731,0.00731,0.00731,0.96264,11789.25586,11354.48730,0
8.60028,8.60028,8.60028,0.00731,0.00731,0.00731,0.96264,11789.25586,11354.51367,0
8.70027,8.70027,8.70027,0.00713,0.00713,0.00713,0.96265,11789.25586,11354.64453,0
8.80027,8.80027,8.80027,0.00710,0.00710,0.00710,0.96266,11789.25586,11354.69238,0
8.90027,8.90027,8.90027,0.00708,0.00708,0.00708,0.96266,11789.25586,11354.72656,0
9.00026,9.00026,9.00026,0.00684,0.00684,0.00684,0.96268,11789.25586,11354.90039,0
9.10026,9.10026,9.10026,0.00685,0.00685,0.00685,0.96268,11789.25586,11354.91113,0
9.20026,9.20026,9.20026,0.00673,0.00673,0.00673,0.96268,11789.25586,11355.01562,0
9.30026,9.30026,9.30026,0.00667,0.00667,0.00667,0.96269,11789.25586,11355.06836,0
9.40025,9.40025,9.40025,0.00660,0.00660,0.00660,0.96269,11789.25586,11355.12598,0
9.50025,9.50025,9.50025,0.00650,0.00650,0.00650,0.96270,11789.25586,11355.21777,0
9.60025,9.60025,9.60025,0.00643,0.00643,0.00643,0.96271,11789.25586,11355.27148,0
9.70024,9.70024,9.70024,0.00634,0.00634,0.00634,0.96271,11789.25586,11355.35156,0
9.80024,9.80024,9.80024,0.00629,0.00629,0.00629,0.96272,11789.25586,11355.40137,0
9.90024,9.90024,9.90024,0.00622,0.00622,0.00622,0.96272,11789.25586,11355.45508,0
10.00024,10.00024,10.00024,0.00614,0.00614,0.00614,0.96273,11789.25586,11355.53125,0
10.10023,10.10023,10.10023,0.00609,0.00609,0.00609,0.96273,11789.25586,11355.57715,0
10.20023,10.20023,10.20023,0.00596,0.00596,0.00596,0.96274,11789.25586,11355.66992,0
10.30023,10.30023,10.30023,0.00594,0.00594,0.00594,0.96274,11789.25586,11355.70605,0
10.40023,10.40023,10.40023,0.00591,0.00591,0.00591,0.96275,11789.25586,11355.73828,0
10.50022,10.50022,10.50022,0.00579,0.00579,0.00579,0.96275,11789.25586,11355.82715,0
10.60022,10.60022,10.60022,0.00577,0.00577,0.00577,0.96276,11789.25586,11355.85449,0
10.70022,10.70022,10.70022,0.00565,0.00565,0.00565,0.96276,11789.25586,11355.95020,0
10.80022,10.80022,10.80022,0.00562,0.00562,0.00562,0.96277,11789.25586,11355.98340,0
10.90021,10.90021,10.90021,0.00557,0.00557,0.00557,0.96277,11789.25586,11356.02148,0
11.00021,11.00021,11.00021,0.00552,0.00552,0.00552,0.96278,11789.25586,11356.08105,0
11.10021,11.10021,11.10021,0.00544,0.00544,0.00544,0.96278,11789.25586,11356.13477,0
11.20021,11.20021,11.20021,0.00538,0.00538,0.00538,0.96278,11789.25586,11356.19629,0
11.30021,11.30021,11.30021,0.00534,0.00534,0.00534,0.96279,11789.25586,11356.22852,0
11.40020,11.40020,11.40020,0.00530,0.00530,0.00530,0.96279,11789.25586,11356.26758,0
11.50020,11.50020,11.50020,0.00522,0.00522,0.00522,0.96280,11789.25586,11356.33008,0
11.60020,11.60020,11.60020,0.00520,0.00520,0.00520,0.96280,11789.25586,11356.35840,0
11.70020,11.70020,11.70020,0.00509,0.00509,0.00509,0.96281,11789.25586,11356.43555,0
11.80020,11.80020,11.80020,0.00508,0.00508,0.00508,0.96281,11789.25586,11356.45898,0
11.90020,11.90020,11.90020,0.00507,0.00507,0.00507,0.96281,11789.25586,11356.47559,0
12.00019,12.00019,12.00019,0.00494,0.00494,0.00494,0.96282,11789.25586,11356.56836,0
12.10019,12.10019,12.10019,0.00497,0.00497,0.00497,0.96282,11789.25586,11356.55957,0
12.20019,12.20019,12.20019,0.00484,0.00484,0.00484,0.96282,11789.25586,11356.66016,0
12.30019,12.30019,12.30019,0.00483,0.00483,0.00483,0.96283,11789.25586,11356.67090,0
12.40019,12.40019,12.40019,0.00483,0.00483,0.00483,0.96283,11789.25586,11356.68555,0
12.50018,12.50018,12.50018,0.00470,0.00470,0.00470,0.96283,11789.25586,11356.77930,0
12.60018,12.60018,12.60018,0.00471,0.00471,0.00471,0.96283,11789.25586,11356.77832,0
12.70018,12.70018,12.70018,0.00464,0.00464,0.00464,0.96284,11789.25586,11356.83789,0
12.80018,12.80018,12.80018,0.00460,0.00460,0.00460,0.96284,11789.25586,11356.87500,0
12.90018,12.90018,12.90018,0.00460,0.00460,0.00460,0.96284,11789.25586,11356.88281,0
13.00017,13.00017,13.00017,0.00451,0.00451,0.00451,0.96285,11789.25586,11356.95605,0
13.10017,13.10017,13.10017,0.00448,0.00448,0.00448,0.96285,11789.25586,11356.96777,0
13.20017,13.20017,13.20017,0.00443,0.00443,0.00443,0.96286,11789.25586,11357.02930,0
13.30017,13.30017,13.30017,0.00440,0.00440,0.00440,0.96286,11789.25586,11357.04688,0
13.40017,13.40017,13.40017,0.00442,0.00442,0.00442,0.96286,11789.25586,11357.04688,0
13.50016,13.50016,13.50016,0.00428,0.00428,0.00428,0.96287,11789.25586,11357.14746,0
13.60016,13.60016,13.60016,0.00430,0.00430,0.00430,0.96286,11789.25586,11357.13770,0
13.70016,13.70016,13.70016,0.00422,0.00422,0.00422,0.96287,11789.25586,11357.20117,0
13.80016,13.80016,13.80016,0.00421,0.00421,0.00421,0.96287,11789.25586,11357.21582,0
13.90016,13.90016,13.90016,0.00421,0.00421,0.00421,0.96287,11789.25586,11357.22656,0
14.00016,14.00016,14.00016,0.00410,0.00410,0.00410,0.96288,11789.25586,11357.30078,0
14.10016,14.10016,14.10016,0.00412,0.00412,0.00412,0.96288,11789.25586,11357.29688,0
14.20016,14.20016,14.20016,0.00404,0.00404,0.00404,0.96288,11789.25586,11357.35840,0
14.30016,14.30016,14.30016,0.00404,0.00404,0.00404,0.96288,11789.25586,11357.36816,0
14.40016,14.40016,14.40016,0.00401,0.00401,0.00401,0.96289,11789.25586,11357.39258,0
14.50015,14.50015,14.50015,0.00394,0.00394,0.00394,0.96289,11789.25586,11357.44922,0
14.60015,14.60015,14.60015,0.00396,0.00396,0.00396,0.96289,11789.25586,11357.44727,0
14.70015,14.70015,14.70015,0.00388,0.00388,0.00388,0.96290,11789.25586,11357.50293,0
14.80015,14.80015,14.80015,0.00386,0.00386,0.00386,0.96290,11789.25586,11357.52246,0
14.90015,14.90015,14.90015,0.00387,0.00387,0.00387,0.96290,11789.25586,11357.52148,0
15.00014,15.00014,15.00014,0.00376,0.00376,0.00376,0.96290,11789.25586,11357.60156,0
15.10015,15.10015,15.10015,0.00380,0.00380,0.00380,0.96290,11789.25586,11357.58496,0
15.20014,15.20014,15.20014,0.00370,0.00370,0.00370,0.96291,11789.25586,11357.65527,0
15.30014,15.30014,15.30014,0.00370,0.00370,0.00370,0.96291,11789.25586,11357.66211,0
15.40014,15.40014,15.40014,0.00370,0.00370,0.00370,0.96291,11789.25586,11357.66699,0
15.50014,15.50014,15.50014,0.00363,0.00363,0.00363,0.96291,11789.25586,11357.72461,0
15.60014,15.60014,15.60014,0.00365,0.00365,0.00365,0.96291,11789.25586,11357.71582,0
15.70014,15.70014,15.70014,0.00356,0.00356,0.00356,0.96292,11789.25586,11357.78125,0
15.80014,15.80014,15.80014,0.00357,0.00357,0.00357,0.96292,11789.25586,11357.78027,0
15.90014,15.90014,15.90014,0.00363,0.00363,0.00363,0.96292,11789.25586,11357.74707,0
16.00013,16.00013,16.00013,0.00340,0.00340,0.00340,0.96293,11789.25586,11357.90527,0
16.10013,16.10013,16.10013,0.00346,0.00346,0.00346,0.96293,11789.25586,11357.87109,0
16.20013,16.20013,16.20013,0.00345,0.00345,0.00345,0.96293,11789.25586,11357.88281,0
16.30013,16.30013,16.30013,0.00346,0.00346,0.00346,0.96293,11789.25586,11357.87988,0
16.40013,16.40013,16.40013,0.00335,0.00335,0.00335,0.96293,11789.25586,11357.96289,0
16.50013,16.50013,16.50013,0.00336,0.00336,0.00336,0.96293,11789.25586,11357.95898,0
16.60013,16.60013,16.60013,0.00334,0.00334,0.00334,0.96294,11789.25586,11357.97949,0
16.70013,16.70013,16.70013,0.00331,0.00331,0.00331,0.96294,11789.25586,11357.99707,0
16.80013,16.80013,16.80013,0.00336,0.00336,0.00336,0.96294,11789.25586,11357.97949,0
16.90012,16.90012,16.90012,0.00320,0.00320,0.00320,0.96295,11789.25586,11358.08984,0
17.00012,17.00012,17.00012,0.00323,0.00323,0.00323,0.96294,11789.25586,11358.07227,0
17.10012,17.10012,17.10012,0.00321,0.00321,0.00321,0.96295,11789.25586,11358.08887,0
17.20012,17.20012,17.20012,0.00320,0.00320,0.00320,0.96295,11789.25586,11358.10449,0
17.30012,17.30012,17.30012,0.00323,0.00323,0.00323,0.96295,11789.25586,11358.08984,0
17.40011,17.40011,17.40011,0.00308,0.00308,0.00308,0.96295,11789.25586,11358.19434,0
17.50011,17.50011,17.50011,0.00311,0.00311,0.00311,0.96295,11789.25586,11358.17773,0
17.60011,17.60011,17.60011,0.00309,0.00309,0.00309,0.96295,11789.25586,11358.19238,0
17.70011,17.70011,17.70011,0.00308,0.00308,0.00308,0.96296,11789.25586,11358.20703,0
17.80012,17.80012,17.80012,0.00311,0.00311,0.00311,0.96295,11789.25586,11358.19043,0
17.90010,17.90010,17.90010,0.00296,0.00296,0.00296,0.96296,11789.25586,11358.29199,0
18.00011,18.00011,18.00011,0.00299,0.00299,0.00299,0.96296,11789.25586,11358.27832,0
18.10011,18.10011,18.10011,0.00298,0.00298,0.00298,0.96296,11789.25586,11358.29297,0
18.20011,18.20011,18.20011,0.00296,0.00296,0.00296,0.96296,11789.25586,11358.30469,0
18.30011,18.30011,18.30011,0.00299,0.00299,0.00299,0.96296,11789.25586,11358.29102,0
18.40010,18.40010,18.40010,0.00286,0.00286,0.00286,0.96297,11789.25586,11358.39062,0
18.50010,18.50010,18.50010,0.00288,0.00288,0.00288,0.96297,11789.25586,11358.37500,0
18.60010,18.60010,18.60010,0.00287,0.00287,0.00287,0.96297,11789.25586,11358.38672,0
18.70010,18.70010,18.70010,0.00286,0.00286,0.00286,0.96297,11789.25586,11358.40039,0
18.80010,18.80010,18.80010,0.00288,0.00288,0.00288,0.96297,11789.25586,11358.38477,0
18.90009,18.90009,18.90009,0.00276,0.00276,0.00276,0.96298,11789.25586,11358.47949,0
19.00010,19.00010,19.00010,0.00278,0.00278,0.00278,0.96298,11789.25586,11358.46387,0
19.10010,19.10010,19.10010,0.00277,0.00277,0.00277,0.96298,11789.25586,11358.47656,0
19.20010,19.20010,19.20010,0.00276,0.00276,0.00276,0.96298,11789.25586,11358.48828,0
19.30010,19.30010,19.30010,0.00278,0.00278,0.00278,0.96298,11789.25586,11358.47168,0
19.40009,19.40009,19.40009,0.00264,0.00264,0.00264,0.96299,11789.25586,11358.57910,0
19.50010,19.50010,19.50010,0.00272,0.00272,0.00272,0.96298,11789.25586,11358.52832,0
19.60009,19.60009,19.60009,0.00265,0.00265,0.00265,0.96299,11789.25586,11358.57129,0
19.70009,19.70009,19.70009,0.00266,0.00266,0.00266,0.96299,11789.25586,11358.57520,0
19.80009,19.80009,19.80009,0.00268,0.00268,0.00268,0.96299,11789.25586,11358.55859,0
19.90009,19.90009,19.90009,0.00255,0.00255,0.00255,0.96299,11789.25586,11358.66309,0
20.00009,20.00009,20.00009,0.00263,0.00263,0.00263,0.96299,11789.25586,11358.61133,0
20.10009,20.10009,20.10009,0.00256,0.00256,0.00256,0.96299,11789.25586,11358.65137,0
20.20009,20.20009,20.20009,0.00256,0.00256,0.00256,0.96299,11789.25586,11358.65625,0
20.30009,20.30009,20.30009,0.00257,0.00257,0.00257,0.96299,11789.25586,11358.64941,0
20.40009,20.40009,20.40009,0.00250,0.00250,0.00250,0.96300,11789.25586,11358.71680,0
20.50009,20.50009,20.50009,0.00252,0.00252,0.00252,0.96300,11789.25586,11358.69922,0
20.60009,20.60009,20.60009,0.00247,0.00247,0.00247,0.96300,11789.25586,11358.73242,0
20.70009,20.70009,20.70009,0.00248,0.00248,0.00248,0.96300,11789.25586,11358.73438,0
20.80009,20.80009,20.80009,0.00250,0.00250,0.00250,0.96300,11789.25586,11358.71680,0
20.90009,20.90009,20.90009,0.00237,0.00237,0.00237,0.96301,11789.25586,11358.80957,0
21.00009,21.00009,21.00009,0.00245,0.00245,0.00245,0.96300,11789.25586,11358.77148,0
21.10009,21.10009,21.10009,0.00239,0.00239,0.00239,0.96301,11789.25586,11358.80176,0
21.20009,21.20009,21.20009,0.00239,0.00239,0.00239,0.96301,11789.25586,11358.80273,0
21.30009,21.30009,21.30009,0.00242,0.00242,0.00242,0.96301,11789.25586,11358.79883,0
21.40009,21.40009,21.40009,0.00229,0.00229,0.00229,0.96301,11789.25586,11358.89062,0
21.50009,21.50009,21.50009,0.00237,0.00237,0.00237,0.96301,11789.25586,11358.83887,0
21.60009,21.60009,21.60009,0.00231,0.00231,0.00231,0.96301,11789.25586,11358.88184,0
21.70009,21.70009,21.70009,0.00231,0.00231,0.00231,0.96301,11789.25586,11358.88184,0
21.80009,21.80009,21.80009,0.00234,0.00234,0.00234,0.96301,11789.25586,11358.85742,0
21.90008,21.90008,21.90008,0.00221,0.00221,0.00221,0.96302,11789.25586,11358.96191,0
22.00009,22.00009,22.00009,0.00229,0.00229,0.00229,0.96301,11789.25586,11358.90430,0
22.10008,22.10008,22.10008,0.00223,0.00223,0.00223,0.96302,11789.25586,11358.95312,0
22.20008,22.20008,22.20008,0.00223,0.00223,0.00223,0.96302,11789.25586,11358.95117,0
22.30009,22.30009,22.30009,0.00226,0.00226,0.00226,0.96302,11789.25586,11358.93555,0
22.40008,22.40008,22.40008,0.00215,0.00215,0.00215,0.96302,11789.25586,11359.01074,0
22.50008,22.50008,22.50008,0.00218,0.00218,0.00218,0.96302,11789.25586,11358.99219,0
22.60008,22.60008,22.60008,0.00217,0.00217,0.00217,0.96302,11789.25586,11359.00000,0
22.70008,22.70008,22.70008,0.00216,0.00216,0.00216,0.96302,11789.25586,11359.00781,0
22.80008,22.80008,22.80008,0.00219,0.00219,0.00219,0.96302,11789.25586,11358.99023,0
22.90008,22.90008,22.90008,0.00208,0.00208,0.00208,0.96303,11789.25586,11359.07520,0
23.00008,23.00008,23.00008,0.00210,0.00210,0.00210,0.96303,11789.25586,11359.05762,0
23.10008,23.10008,23.10008,0.00210,0.00210,0.00210,0.96303,11789.25586,11359.06348,0
23.20008,23.20008,23.20008,0.00209,0.00209,0.00209,0.96303,11789.25586,11359.07031,0
23.30008,23.30008,23.30008,0.00212,0.00212,0.00212,0.96303,11789.25586,11359.05273,0
23.40008,23.40008,23.40008,0.00201,0.00201,0.00201,0.96303,11789.25586,11359.13672,0
23.50008,23.50008,23.50008,0.00203,0.00203,0.00203,0.96303,11789.25586,11359.12012,0
23.60008,23.60008,23.60008,0.00203,0.00203,0.00203,0.96303,11789.25586,11359.12598,0
23.70008,23.70008,23.70008,0.00202,0.00202,0.00202,0.96303,11789.25586,11359.13184,0
