x,y,z,vx,vy,vz,temperature,density,pressure,is_star
0.02774,0.02774,0.02774,0.97863,0.97863,0.97863,0.91894,11789.25586,10839.08887,0
0.10966,0.10966,0.10966,0.29406,0.29406,0.29406,0.95281,11789.25586,11238.58203,0
0.20613,0.20613,0.20613,0.19759,0.19759,0.19759,0.95957,11789.25586,11318.30078,0
0.30446,0.30446,0.30446,0.14616,0.14616,0.14616,0.96278,11789.25586,11356.10254,0
0.40350,0.40350,0.40350,0.11556,0.11556,0.11556,0.96463,11789.25586,11377.94434,0
0.50288,0.50288,0.50288,0.09539,0.09539,0.09539,0.96583,11789.25586,11392.14258,0
0.60244,0.60244,0.60244,0.08115,0.08115,0.08115,0.96668,11789.25586,11402.09180,0
0.70212,0.70212,0.70212,0.07055,0.07055,0.07055,0.96730,11789.25586,11409.45898,0
0.80187,0.80187,0.80187,0.06238,0.06238,0.06238,0.96778,11789.25586,11415.11621,0
0.90167,0.90167,0.90167,0.05588,0.05588,0.05588,0.96816,11789.25586,11419.60254,0
1.00151,1.00151,1.00151,0.05059,0.05059,0.05059,0.96847,11789.25586,11423.25293,0
1.10138,1.10138,1.10138,0.04621,0.04621,0.04621,0.96873,11789.25586,11426.27246,0
1.20127,1.20127,1.20127,0.04250,0.04250,0.04250,0.96894,11789.25586,11428.81641,0
1.30118,1.30118,1.30118,0.03936,0.03936,0.03936,0.96912,11789.25586,11430.97559,0
1.40109,1.40109,1.40109,0.03663,0.03663,0.03663,0.96928,11789.25586,11432.85156,0
1.50102,1.50102,1.50102,0.03423,0.03423,0.03423,0.96942,11789.25586,11434.49219,0
1.60096,1.60096,1.60096,0.03216,0.03216,0.03216,0.96954,11789.25586,11435.91504,0
1.70091,1.70091,1.70091,0.03030,0.03030,0.03030,0.96965,11789.25586,11437.19043,0
1.80086,1.80086,1.80086,0.02865,0.02865,0.02865,0.96975,11789.25586,11438.32422,0
1.90081,1.90081,1.90081,0.02713,0.02713,0.02713,0.96984,11789.25586,11439.35547,0
2.00077,2.00077,2.00077,0.02581,0.02581,0.02581,0.96991,11789.25586,11440.26758,0
2.10073,2.10073,2.10073,0.02459,0.02459,0.02459,0.96998,11789.25586,11441.09668,0
2.20070,2.20070,2.20070,0.02347,0.02347,0.02347,0.97005,11789.25586,11441.86523,0
2.30067,2.30067,2.30067,0.02245,0.02245,0.02245,0.97011,11789.25586,11442.56738,0
2.40064,2.40064,2.40064,0.02152,0.02152,0.02152,0.97016,11789.25586,11443.20312,0
2.50062,2.50062,2.50062,0.02066,0.02066,0.02066,0.97021,11789.25586,11443.79102,0
2.60059,2.60059,2.60059,0.01985,0.01985,0.01985,0.97026,11789.25586,11444.34375,0
2.70057,2.70057,2.70057,0.01912,0.01912,0.01912,0.97030,11789.25586,11444.84473,0
2.80055,2.80055,2.80055,0.01842,0.01842,0.01842,0.97034,11789.25586,11445.31934,0
2.90053,2.90053,2.90053,0.01779,0.01779,0.01779,0.97038,11789.25586,11445.75195,0
3.00051,3.00051,3.00051,0.01718,0.01718,0.01718,0.97041,11789.25586,11446.16699,0
3.10050,3.10050,3.10050,0.01662,0.01662,0.01662,0.97045,11789.25586,11446.55273,0
3.20048,3.20048,3.20048,0.01610,0.01610,0.01610,0.97048,11789.25586,11446.90820,0
3.30046,3.30046,3.30046,0.01559,0.01559,0.01559,0.97051,11789.25586,11447.25684,0
3.40045,3.40045,3.40045,0.01514,0.01514,0.01514,0.97053,11789.25586,11447.56641,0
3.50044,3.50044,3.50044,0.01468,0.01468,0.01468,0.97056,11789.25586,11447.87500,0
3.60043,3.60043,3.60043,0.01428,0.01428,0.01428,0.97058,11789.25586,11448.15234,0
3.70041,3.70041,3.70041,0.01385,0.01385,0.01385,0.97061,11789.25586,11448.44043,0
3.80040,3.80040,3.80040,0.01351,0.01351,0.01351,0.97063,11789.25586,11448.68262,0
3.90039,3.90039,3.90039,0.01316,0.01316,0.01316,0.97065,11789.25586,11448.91895,0
4.00038,4.00038,4.00038,0.01279,0.01279,0.01279,0.97067,11789.25586,11449.16895,0
4.10037,4.10037,4.10037,0.01247,0.01247,0.01247,0.97069,11789.25586,11449.38672,0
4.20036,4.20036,4.20036,0.01219,0.01219,0.01219,0.97070,11789.25586,11449.58203,0
4.30035,4.30035,4.30035,0.01189,0.01189,0.01189,0.97072,11789.25586,11449.79004,0
4.40035,4.40035,4.40035,0.01160,0.01160,0.01160,0.97074,11789.25586,11449.98633,0
4.50034,4.50034,4.50034,0.01133,0.01133,0.01133,0.97075,11789.25586,11450.16113,0
4.60033,4.60033,4.60033,0.01107,0.01107,0.01107,0.97077,11789.25586,11450.34180,0
4.70032,4.70032,4.70032,0.01084,0.01084,0.01084,0.97078,11789.25586,11450.50684,0
4.80032,4.80032,4.80032,0.01059,0.01059,0.01059,0.97079,11789.25586,11450.66797,0
4.90031,4.90031,4.90031,0.01038,0.01038,0.01038,0.97081,11789.25586,11450.82617,0
5.00030,5.00030,5.00030,0.01015,0.01015,0.01015,0.97082,11789.25586,11450.97070,0
5.10030,5.10030,5.10030,0.00994,0.00994,0.00994,0.97083,11789.25586,11451.11621,0
5.20029,5.20029,5.20029,0.00975,0.00975,0.00975,0.97084,11789.25586,11451.24707,0
5.30028,5.30028,5.30028,0.00955,0.00955,0.00955,0.97085,11789.25586,11451.38379,0
5.40028,5.40028,5.40028,0.00938,0.00938,0.00938,0.97087,11789.25586,11451.50293,0
5.50027,5.50027,5.50027,0.00915,0.00915,0.00915,0.97088,11789.25586,11451.64648,0
5.60027,5.60027,5.60027,0.00902,0.00902,0.00902,0.97089,11789.25586,11451.75098,0
5.70026,5.70026,5.70026,0.00886,0.00886,0.00886,0.97089,11789.25586,11451.85547,0
5.80026,5.80026,5.80026,0.00869,0.00869,0.00869,0.97090,11789.25586,11451.97168,0
5.90025,5.90025,5.90025,0.00852,0.00852,0.00852,0.97091,11789.25586,11452.08496,0
6.00025,6.00025,6.00025,0.00837,0.00837,0.00837,0.97092,11789.25586,11452.19043,0
6.10024,6.10024,6.10024,0.00822,0.00822,0.00822,0.97093,11789.25586,11452.28906,0
6.20024,6.20024,6.20024,0.00811,0.00811,0.00811,0.97094,11789.25586,11452.37305,0
6.30024,6.30024,6.30024,0.00795,0.00795,0.00795,0.97095,11789.25586,11452.47559,0
6.40023,6.40023,6.40023,0.00781,0.00781,0.00781,0.97096,11789.25586,11452.57227,0
6.50023,6.50023,6.50023,0.00770,0.00770,0.00770,0.97096,11789.25586,11452.64941,0
6.60023,6.60023,6.60023,0.00757,0.00757,0.00757,0.97097,11789.25586,11452.73926,0
6.70022,6.70022,6.70022,0.00744,0.00744,0.00744,0.97098,11789.25586,11452.82129,0
6.80022,6.80022,6.80022,0.00733,0.00733,0.00733,0.97098,11789.25586,11452.90039,0
6.90022,6.90022,6.90022,0.00722,0.00722,0.00722,0.97099,11789.25586,11452.98438,0
7.00021,7.00021,7.00021,0.00710,0.00710,0.00710,0.97100,11789.25586,11453.06055,0
7.10021,7.10021,7.10021,0.00697,0.00697,0.00697,0.97100,11789.25586,11453.13770,0
7.20021,7.20021,7.20021,0.00691,0.00691,0.00691,0.97101,11789.25586,11453.19141,0
7.30020,7.30020,7.30020,0.00682,0.00682,0.00682,0.97101,11789.25586,11453.25488,0
7.40020,7.40020,7.40020,0.00665,0.00665,0.00665,0.97102,11789.25586,11453.35742,0
7.50020,7.50020,7.50020,0.00659,0.00659,0.00659,0.97103,11789.25586,11453.40723,0
7.60019,7.60019,7.60019,0.00648,0.00648,0.00648,0.97103,11789.25586,11453.47754,0
7.70019,7.70019,7.70019,0.00641,0.00641,0.00641,0.97104,11789.25586,11453.53125,0
7.80019,7.80019,7.80019,0.00632,0.00632,0.00632,0.97104,11789.25586,11453.59180,0
7.90019,7.90019,7.90019,0.00624,0.00624,0.00624,0.97105,11789.25586,11453.64844,0
8.00018,8.00018,8.00018,0.00611,0.00611,0.00611,0.97105,11789.25586,11453.72656,0
8.10018,8.10018,8.10018,0.00607,0.00607,0.00607,0.97106,11789.25586,11453.76367,0
8.20018,8.20018,8.20018,0.00597,0.00597,0.00597,0.97106,11789.25586,11453.82910,0
8.30018,8.30018,8.30018,0.00589,0.00589,0.00589,0.97107,11789.25586,11453.88184,0
8.40018,8.40018,8.40018,0.00585,0.00585,0.00585,0.97107,11789.25586,11453.91797,0
8.50017,8.50017,8.50017,0.00572,0.00572,0.00572,0.97108,11789.25586,11453.99805,0
8.60017,8.60017,8.60017,0.00570,0.00570,0.00570,0.97108,11789.25586,11454.02246,0
8.70017,8.70017,8.70017,0.00557,0.00557,0.00557,0.97108,11789.25586,11454.09570,0
8.80017,8.80017,8.80017,0.00553,0.00553,0.00553,0.97109,11789.25586,11454.12695,0
8.90017,8.90017,8.90017,0.00551,0.00551,0.00551,0.97109,11789.25586,11454.15332,0
9.00016,9.00016,9.00016,0.00534,0.00534,0.00534,0.97110,11789.25586,11454.24805,0
9.10016,9.10016,9.10016,0.00534,0.00534,0.00534,0.97110,11789.25586,11454.26270,0
9.20016,9.20016,9.20016,0.00525,0.00525,0.00525,0.97110,11789.25586,11454.32617,0
9.30015,9.30015,9.30015,0.00520,0.00520,0.00520,0.97111,11789.25586,11454.35547,0
9.40015,9.40015,9.40015,0.00515,0.00515,0.00515,0.97111,11789.25586,11454.39258,0
9.50015,9.50015,9.50015,0.00507,0.00507,0.00507,0.97111,11789.25586,11454.44824,0
9.60015,9.60015,9.60015,0.00501,0.00501,0.00501,0.97112,11789.25586,11454.47754,0
9.70015,9.70015,9.70015,0.00495,0.00495,0.00495,0.97112,11789.25586,11454.52930,0
9.80015,9.80015,9.80015,0.00490,0.00490,0.00490,0.97112,11789.25586,11454.56055,0
9.90014,9.90014,9.90014,0.00485,0.00485,0.00485,0.97113,11789.25586,11454.59180,0
10.00014,10.00014,10.00014,0.00479,0.00479,0.00479,0.97113,11789.25586,11454.63965,0
10.10014,10.10014,10.10014,0.00475,0.00475,0.00475,0.97113,11789.25586,11454.66699,0
10.20014,10.20014,10.20014,0.00466,0.00466,0.00466,0.97114,11789.25586,11454.71875,0
10.30014,10.30014,10.30014,0.00463,0.00463,0.00463,0.97114,11789.25586,11454.74609,0
10.40014,10.40014,10.40014,0.00460,0.00460,0.00460,0.97114,11789.25586,11454.76953,0
10.50014,10.50014,10.50014,0.00452,0.00452,0.00452,0.97115,11789.25586,11454.81836,0
10.60013,10.60013,10.60013,0.00450,0.00450,0.00450,0.97115,11789.25586,11454.83594,0
10.70013,10.70013,10.70013,0.00441,0.00441,0.00441,0.97115,11789.25586,11454.89258,0
10.80013,10.80013,10.80013,0.00438,0.00438,0.00438,0.97115,11789.25586,11454.91504,0
10.90013,10.90013,10.90013,0.00435,0.00435,0.00435,0.97116,11789.25586,11454.93750,0
11.00013,11.00013,11.00013,0.00430,0.00430,0.00430,0.97116,11789.25586,11454.97754,0
11.10012,11.10012,11.10012,0.00424,0.00424,0.00424,0.97116,11789.25586,11455.00293,0
11.20012,11.20012,11.20012,0.00419,0.00419,0.00419,0.97117,11789.25586,11455.04492,0
11.30012,11.30012,11.30012,0.00417,0.00417,0.00417,0.97117,11789.25586,11455.06348,0
11.40012,11.40012,11.40012,0.00413,0.00413,0.00413,0.97117,11789.25586,11455.08691,0
11.50012,11.50012,11.50012,0.00407,0.00407,0.00407,0.97117,11789.25586,11455.12500,0
11.60012,11.60012,11.60012,0.00405,0.00405,0.00405,0.97117,11789.25586,11455.14355,0
11.70012,11.70012,11.70012,0.00398,0.00398,0.00398,0.97118,11789.25586,11455.18750,0
11.80012,11.80012,11.80012,0.00396,0.00396,0.00396,0.97118,11789.25586,11455.20312,0
11.90012,11.90012,11.90012,0.00395,0.00395,0.00395,0.97118,11789.25586,11455.21582,0
12.00012,12.00012,12.00012,0.00386,0.00386,0.00386,0.97118,11789.25586,11455.26758,0
12.10012,12.10012,12.10012,0.00387,0.00387,0.00387,0.97118,11789.25586,11455.26758,0
12.20011,12.20011,12.20011,0.00378,0.00378,0.00378,0.97119,11789.25586,11455.32422,0
12.30011,12.30011,12.30011,0.00377,0.00377,0.00377,0.97119,11789.25586,11455.33105,0
12.40011,12.40011,12.40011,0.00376,0.00376,0.00376,0.97119,11789.25586,11455.34375,0
12.50011,12.50011,12.50011,0.00367,0.00367,0.00367,0.97120,11789.25586,11455.39746,0
12.60011,12.60011,12.60011,0.00367,0.00367,0.00367,0.97120,11789.25586,11455.39844,0
12.70011,12.70011,12.70011,0.00362,0.00362,0.00362,0.97120,11789.25586,11455.43359,0
12.80011,12.80011,12.80011,0.00359,0.00359,0.00359,0.97120,11789.25586,11455.45801,0
12.90011,12.90011,12.90011,0.00358,0.00358,0.00358,0.97120,11789.25586,11455.46289,0
13.00010,13.00010,13.00010,0.00352,0.00352,0.00352,0.97120,11789.25586,11455.50586,0
13.10010,13.10010,13.10010,0.00350,0.00350,0.00350,0.97120,11789.25586,11455.51074,0
13.20010,13.20010,13.20010,0.00345,0.00345,0.00345,0.97121,11789.25586,11455.55371,0
13.30010,13.30010,13.30010,0.00344,0.00344,0.00344,0.97121,11789.25586,11455.56250,0
13.40010,13.40010,13.40010,0.00344,0.00344,0.00344,0.97121,11789.25586,11455.56543,0
13.50010,13.50010,13.50010,0.00334,0.00334,0.00334,0.97121,11789.25586,11455.62012,0
13.60010,13.60010,13.60010,0.00335,0.00335,0.00335,0.97121,11789.25586,11455.61816,0
13.70010,13.70010,13.70010,0.00330,0.00330,0.00330,0.97122,11789.25586,11455.65332,0
13.80010,13.80010,13.80010,0.00328,0.00328,0.00328,0.97122,11789.25586,11455.66504,0
13.90010,13.90010,13.90010,0.00328,0.00328,0.00328,0.97122,11789.25586,11455.67285,0
14.00009,14.00009,14.00009,0.00321,0.00321,0.00321,0.97122,11789.25586,11455.71387,0
14.10009,14.10009,14.10009,0.00321,0.00321,0.00321,0.97122,11789.25586,11455.71484,0
14.20009,14.20009,14.20009,0.00316,0.00316,0.00316,0.97123,11789.25586,11455.75098,0
14.30009,14.30009,14.30009,0.00315,0.00315,0.00315,0.97123,11789.25586,11455.75879,0
14.40009,14.40009,14.40009,0.00313,0.00313,0.00313,0.97123,11789.25586,11455.77246,0
14.50009,14.50009,14.50009,0.00308,0.00308,0.00308,0.97123,11789.25586,11455.80469,0
14.60009,14.60009,14.60009,0.00308,0.00308,0.00308,0.97123,11789.25586,11455.80664,0
14.70009,14.70009,14.70009,0.00303,0.00303,0.00303,0.97123,11789.25586,11455.83887,0
14.80009,14.80009,14.80009,0.00301,0.00301,0.00301,0.97123,11789.25586,11455.85059,0
14.90009,14.90009,14.90009,0.00301,0.00301,0.00301,0.97123,11789.25586,11455.85352,0
15.00009,15.00009,15.00009,0.00294,0.00294,0.00294,0.97124,11789.25586,11455.89844,0
15.10009,15.10009,15.10009,0.00296,0.00296,0.00296,0.97124,11789.25586,11455.89160,0
15.20009,15.20009,15.20009,0.00289,0.00289,0.00289,0.97124,11789.25586,11455.92969,0
15.30009,15.30009,15.30009,0.00289,0.00289,0.00289,0.97124,11789.25586,11455.93555,0
15.40009,15.40009,15.40009,0.00288,0.00288,0.00288,0.97124,11789.25586,11455.94141,0
15.50008,15.50008,15.50008,0.00283,0.00283,0.00283,0.97124,11789.25586,11455.97461,0
15.60009,15.60009,15.60009,0.00284,0.00284,0.00284,0.97124,11789.25586,11455.97168,0
15.70008,15.70008,15.70008,0.00278,0.00278,0.00278,0.97125,11789.25586,11456.00684,0
15.80008,15.80008,15.80008,0.00278,0.00278,0.00278,0.97125,11789.25586,11456.00977,0
15.90008,15.90008,15.90008,0.00281,0.00281,0.00281,0.97125,11789.25586,11455.99219,0
16.00007,16.00007,16.00007,0.00267,0.00267,0.00267,0.97125,11789.25586,11456.08008,0
16.10007,16.10007,16.10007,0.00270,0.00270,0.00270,0.97125,11789.25586,11456.06445,0
16.20007,16.20007,16.20007,0.00269,0.00269,0.00269,0.97125,11789.25586,11456.07031,0
16.30007,16.30007,16.30007,0.00269,0.00269,0.00269,0.97125,11789.25586,11456.06934,0
16.40007,16.40007,16.40007,0.00262,0.00262,0.00262,0.97126,11789.25586,11456.11719,0
16.50007,16.50007,16.50007,0.00262,0.00262,0.00262,0.97126,11789.25586,11456.11621,0
16.60007,16.60007,16.60007,0.00261,0.00261,0.00261,0.97126,11789.25586,11456.13184,0
16.70007,16.70007,16.70007,0.00259,0.00259,0.00259,0.97126,11789.25586,11456.14062,0
16.80007,16.80007,16.80007,0.00260,0.00260,0.00260,0.97126,11789.25586,11456.13379,0
16.90007,16.90007,16.90007,0.00250,0.00250,0.00250,0.97126,11789.25586,11456.19434,0
17.00007,17.00007,17.00007,0.00252,0.00252,0.00252,0.97126,11789.25586,11456.18652,0
17.10007,17.10007,17.10007,0.00251,0.00251,0.00251,0.97126,11789.25586,11456.19629,0
17.20007,17.20007,17.20007,0.00249,0.00249,0.00249,0.97126,11789.25586,11456.20605,0
17.30007,17.30007,17.30007,0.00251,0.00251,0.00251,0.97126,11789.25586,11456.19824,0
17.40007,17.40007,17.40007,0.00241,0.00241,0.00241,0.97127,11789.25586,11456.25781,0
17.50007,17.50007,17.50007,0.00242,0.00242,0.00242,0.97127,11789.25586,11456.25000,0
17.60007,17.60007,17.60007,0.00241,0.00241,0.00241,0.97127,11789.25586,11456.25879,0
17.70007,17.70007,17.70007,0.00240,0.00240,0.00240,0.97127,11789.25586,11456.26758,0
17.80007,17.80007,17.80007,0.00242,0.00242,0.00242,0.97127,11789.25586,11456.25977,0
17.90007,17.90007,17.90007,0.00232,0.00232,0.00232,0.97127,11789.25586,11456.31738,0
18.00007,18.00007,18.00007,0.00234,0.00234,0.00234,0.97127,11789.25586,11456.31055,0
18.10007,18.10007,18.10007,0.00232,0.00232,0.00232,0.97127,11789.25586,11456.32129,0
18.20007,18.20007,18.20007,0.00231,0.00231,0.00231,0.97127,11789.25586,11456.32812,0
18.30007,18.30007,18.30007,0.00233,0.00233,0.00233,0.97127,11789.25586,11456.32129,0
18.40006,18.40006,18.40006,0.00223,0.00223,0.00223,0.97128,11789.25586,11456.37793,0
18.50006,18.50006,18.50006,0.00225,0.00225,0.00225,0.97128,11789.25586,11456.37012,0
18.60007,18.60007,18.60007,0.00224,0.00224,0.00224,0.97128,11789.25586,11456.37793,0
18.70007,18.70007,18.70007,0.00223,0.00223,0.00223,0.97128,11789.25586,11456.38574,0
18.80007,18.80007,18.80007,0.00225,0.00225,0.00225,0.97128,11789.25586,11456.37793,0
18.90006,18.90006,18.90006,0.00215,0.00215,0.00215,0.97128,11789.25586,11456.43262,0
19.00006,19.00006,19.00006,0.00217,0.00217,0.00217,0.97128,11789.25586,11456.42480,0
19.10006,19.10006,19.10006,0.00216,0.00216,0.00216,0.97128,11789.25586,11456.43262,0
19.20006,19.20006,19.20006,0.00215,0.00215,0.00215,0.97128,11789.25586,11456.44043,0
19.30006,19.30006,19.30006,0.00217,0.00217,0.00217,0.97128,11789.25586,11456.43164,0
19.40006,19.40006,19.40006,0.00206,0.00206,0.00206,0.97129,11789.25586,11456.49023,0
19.50006,19.50006,19.50006,0.00212,0.00212,0.00212,0.97129,11789.25586,11456.46875,0
19.60006,19.60006,19.60006,0.00207,0.00207,0.00207,0.97129,11789.25586,11456.48926,0
19.70006,19.70006,19.70006,0.00207,0.00207,0.00207,0.97129,11789.25586,11456.49316,0
19.80006,19.80006,19.80006,0.00209,0.00209,0.00209,0.97129,11789.25586,11456.48535,0
19.90006,19.90006,19.90006,0.00199,0.00199,0.00199,0.97129,11789.25586,11456.54102,0
20.00006,20.00006,20.00006,0.00205,0.00205,0.00205,0.97129,11789.25586,11456.51855,0
20.10006,20.10006,20.10006,0.00200,0.00200,0.00200,0.97129,11789.25586,11456.53809,0
20.20006,20.20006,20.20006,0.00200,0.00200,0.00200,0.97129,11789.25586,11456.54297,0
20.30006,20.30006,20.30006,0.00201,0.00201,0.00201,0.97129,11789.25586,11456.53809,0
20.40006,20.40006,20.40006,0.00195,0.00195,0.00195,0.97130,11789.25586,11456.58203,0
20.50006,20.50006,20.50006,0.00196,0.00196,0.00196,0.97129,11789.25586,11456.57129,0
20.60006,20.60006,20.60006,0.00193,0.00193,0.00193,0.97130,11789.25586,11456.58594,0
20.70006,20.70006,20.70006,0.00193,0.00193,0.00193,0.97130,11789.25586,11456.58887,0
20.80006,20.80006,20.80006,0.00195,0.00195,0.00195,0.97130,11789.25586,11456.58203,0
20.90005,20.90005,20.90005,0.00185,0.00185,0.00185,0.97130,11789.25586,11456.62793,0
21.00006,21.00006,21.00006,0.00191,0.00191,0.00191,0.97130,11789.25586,11456.61328,0
21.10006,21.10006,21.10006,0.00186,0.00186,0.00186,0.97130,11789.25586,11456.62793,0
21.20006,21.20006,21.20006,0.00187,0.00187,0.00187,0.97130,11789.25586,11456.63086,0
21.30006,21.30006,21.30006,0.00188,0.00188,0.00188,0.97130,11789.25586,11456.62891,0
21.40005,21.40005,21.40005,0.00179,0.00179,0.00179,0.97130,11789.25586,11456.68164,0
21.50006,21.50006,21.50006,0.00184,0.00184,0.00184,0.97130,11789.25586,11456.65723,0
21.60005,21.60005,21.60005,0.00180,0.00180,0.00180,0.97130,11789.25586,11456.68066,0
21.70005,21.70005,21.70005,0.00180,0.00180,0.00180,0.97130,11789.25586,11456.68066,0
21.80005,21.80005,21.80005,0.00182,0.00182,0.00182,0.97130,11789.25586,11456.66406,0
21.90005,21.90005,21.90005,0.00173,0.00173,0.00173,0.97131,11789.25586,11456.72656,0
22.00005,22.00005,22.00005,0.00178,0.00178,0.00178,0.97131,11789.25586,11456.69531,0
22.10005,22.10005,22.10005,0.00174,0.00174,0.00174,0.97131,11789.25586,11456.72363,0
22.20005,22.20005,22.20005,0.00174,0.00174,0.00174,0.97131,11789.25586,11456.72363,0
22.30005,22.30005,22.30005,0.00176,0.00176,0.00176,0.97131,11789.25586,11456.71582,0
22.40005,22.40005,22.40005,0.00168,0.00168,0.00168,0.97131,11789.25586,11456.75488,0
22.50005,22.50005,22.50005,0.00170,0.00170,0.00170,0.97131,11789.25586,11456.74512,0
22.60005,22.60005,22.60005,0.00169,0.00169,0.00169,0.97131,11789.25586,11456.75000,0
22.70005,22.70005,22.70005,0.00169,0.00169,0.00169,0.97131,11789.25586,11456.75488,0
22.80005,22.80005,22.80005,0.00170,0.00170,0.00170,0.97131,11789.25586,11456.74609,0
22.90005,22.90005,22.90005,0.00162,0.00162,0.00162,0.97131,11789.25586,11456.79395,0
23.00005,23.00005,23.00005,0.00164,0.00164,0.00164,0.97131,11789.25586,11456.78418,0
23.10005,23.10005,23.10005,0.00164,0.00164,0.00164,0.97131,11789.25586,11456.78906,0
23.20005,23.20005,23.20005,0.00163,0.00163,0.00163,0.97131,11789.25586,11456.79395,0
23.30005,23.30005,23.30005,0.00165,0.00165,0.00165,0.97131,11789.25586,11456.78418,0
23.40005,23.40005,23.40005,0.00157,0.00157,0.00157,0.97132,11789.25586,11456.83105,0
23.50005,23.50005,23.50005,0.00159,0.00159,0.00159,0.97132,11789.25586,11456.82227,0
23.60005,23.60005,23.60005,0.00158,0.00158,0.00158,0.97132,11789.25586,11456.82617,0
23.70005,23.70005,23.70005,0.00158,0.00158,0.00158,0.97132,11789.25586,11456.83105,0
