x,y,z,vx,vy,vz,temperature,density,pressure,is_star
0.04245,0.04245,0.04245,1.27021,1.27021,1.27021,0.88649,11789.25586,10456.26855,0
0.11359,0.11359,0.11359,0.30061,0.30061,0.30061,0.93923,11789.25586,11078.31152,0
0.20893,0.20893,0.20893,0.22979,0.22979,0.22979,0.94802,11789.25586,11182.04688,0
0.30656,0.30656,0.30656,0.17333,0.17333,0.17333,0.95254,11789.25586,11235.31445,0
0.40517,0.40517,0.40517,0.13820,0.13820,0.13820,0.95519,11789.25586,11266.64258,0
0.50425,0.50425,0.50425,0.11461,0.11461,0.11461,0.95693,11789.25586,11287.17676,0
0.60362,0.60362,0.60362,0.09779,0.09779,0.09779,0.95816,11789.25586,11301.64062,0
0.70314,0.70314,0.70314,0.08517,0.08517,0.08517,0.95907,11789.25586,11312.38965,0
0.80277,0.80277,0.80277,0.07541,0.07541,0.07541,0.95977,11789.25586,11320.66016,0
0.90248,0.90248,0.90248,0.06762,0.06762,0.06762,0.96033,11789.25586,11327.23047,0
1.00225,1.00225,1.00225,0.06127,0.06127,0.06127,0.96078,11789.25586,11332.58008,0
1.10205,1.10205,1.10205,0.05599,0.05599,0.05599,0.96116,11789.25586,11337.01465,0
1.20189,1.20189,1.20189,0.05153,0.05153,0.05153,0.96148,11789.25586,11340.75391,0
1.30175,1.30175,1.30175,0.04774,0.04774,0.04774,0.96174,11789.25586,11343.92773,0
1.40163,1.40163,1.40163,0.04444,0.04444,0.04444,0.96198,11789.25586,11346.68750,0
1.50152,1.50152,1.50152,0.04154,0.04154,0.04154,0.96218,11789.25586,11349.10254,0
1.60143,1.60143,1.60143,0.03904,0.03904,0.03904,0.96236,11789.25586,11351.19727,0
1.70135,1.70135,1.70135,0.03679,0.03679,0.03679,0.96252,11789.25586,11353.07520,0
1.80127,1.80127,1.80127,0.03479,0.03479,0.03479,0.96266,11789.25586,11354.74316,0
1.90120,1.90120,1.90120,0.03294,0.03294,0.03294,0.96279,11789.25586,11356.27051,0
2.00115,2.00115,2.00115,0.03136,0.03136,0.03136,0.96290,11789.25586,11357.60645,0
2.10109,2.10109,2.10109,0.02987,0.02987,0.02987,0.96301,11789.25586,11358.83301,0
2.20104,2.20104,2.20104,0.02851,0.02851,0.02851,0.96310,11789.25586,11359.96484,0
2.30100,2.30100,2.30100,0.02727,0.02727,0.02727,0.96319,11789.25586,11361.00000,0
2.40095,2.40095,2.40095,0.02614,0.02614,0.02614,0.96327,11789.25586,11361.93945,0
2.50092,2.50092,2.50092,0.02511,0.02511,0.02511,0.96335,11789.25586,11362.80371,0
2.60088,2.60088,2.60088,0.02412,0.02412,0.02412,0.96341,11789.25586,11363.62012,0
2.70085,2.70085,2.70085,0.02323,0.02323,0.02323,0.96348,11789.25586,11364.36230,0
2.80082,2.80082,2.80082,0.02239,0.02239,0.02239,0.96354,11789.25586,11365.05957,0
2.90079,2.90079,2.90079,0.02162,0.02162,0.02162,0.96359,11789.25586,11365.69727,0
3.00076,3.00076,3.00076,0.02088,0.02088,0.02088,0.96364,11789.25586,11366.31348,0
3.10074,3.10074,3.10074,0.02020,0.02020,0.02020,0.96369,11789.25586,11366.87988,0
3.20071,3.20071,3.20071,0.01957,0.01957,0.01957,0.96374,11789.25586,11367.40430,0
3.30069,3.30069,3.30069,0.01894,0.01894,0.01894,0.96378,11789.25586,11367.91895,0
3.40067,3.40067,3.40067,0.01840,0.01840,0.01840,0.96382,11789.25586,11368.37402,0
3.50065,3.50065,3.50065,0.01784,0.01784,0.01784,0.96386,11789.25586,11368.83301,0
3.60063,3.60063,3.60063,0.01737,0.01737,0.01737,0.96389,11789.25586,11369.24023,0
3.70061,3.70061,3.70061,0.01683,0.01683,0.01683,0.96393,11789.25586,11369.66992,0
3.80060,3.80060,3.80060,0.01642,0.01642,0.01642,0.96396,11789.25586,11370.02246,0
3.90058,3.90058,3.90058,0.01601,0.01601,0.01601,0.96399,11789.25586,11370.36914,0
4.00057,4.00057,4.00057,0.01555,0.01555,0.01555,0.96402,11789.25586,11370.74219,0
4.10055,4.10055,4.10055,0.01516,0.01516,0.01516,0.96405,11789.25586,11371.06543,0
4.20054,4.20054,4.20054,0.01482,0.01482,0.01482,0.96407,11789.25586,11371.35156,0
4.30053,4.30053,4.30053,0.01445,0.01445,0.01445,0.96410,11789.25586,11371.65723,0
4.40051,4.40051,4.40051,0.01410,0.01410,0.01410,0.96412,11789.25586,11371.94629,0
4.50050,4.50050,4.50050,0.01378,0.01378,0.01378,0.96414,11789.25586,11372.20703,0
4.60049,4.60049,4.60049,0.01346,0.01346,0.01346,0.96416,11789.25586,11372.47363,0
4.70048,4.70048,4.70048,0.01318,0.01318,0.01318,0.96419,11789.25586,11372.71582,0
4.80047,4.80047,4.80047,0.01288,0.01288,0.01288,0.96421,11789.25586,11372.95801,0
4.90046,4.90046,4.90046,0.01262,0.01262,0.01262,0.96423,11789.25586,11373.18652,0
5.00045,5.00045,5.00045,0.01235,0.01235,0.01235,0.96424,11789.25586,11373.40137,0
5.10044,5.10044,5.10044,0.01209,0.01209,0.01209,0.96426,11789.25586,11373.61816,0
5.20043,5.20043,5.20043,0.01185,0.01185,0.01185,0.96428,11789.25586,11373.81055,0
5.30042,5.30042,5.30042,0.01161,0.01161,0.01161,0.96430,11789.25586,11374.00977,0
5.40042,5.40042,5.40042,0.01141,0.01141,0.01141,0.96431,11789.25586,11374.18555,0
5.50040,5.50040,5.50040,0.01112,0.01112,0.01112,0.96433,11789.25586,11374.40625,0
5.60040,5.60040,5.60040,0.01097,0.01097,0.01097,0.96434,11789.25586,11374.55371,0
5.70039,5.70039,5.70039,0.01078,0.01078,0.01078,0.96435,11789.25586,11374.70898,0
5.80039,5.80039,5.80039,0.01057,0.01057,0.01057,0.96437,11789.25586,11374.87891,0
5.90038,5.90038,5.90038,0.01036,0.01036,0.01036,0.96438,11789.25586,11375.04785,0
6.00037,6.00037,6.00037,0.01018,0.01018,0.01018,0.96440,11789.25586,11375.20117,0
6.10036,6.10036,6.10036,0.01000,0.01000,0.01000,0.96441,11789.25586,11375.34961,0
6.20036,6.20036,6.20036,0.00986,0.00986,0.00986,0.96442,11789.25586,11375.47168,0
6.30035,6.30035,6.30035,0.00966,0.00966,0.00966,0.96443,11789.25586,11375.62598,0
6.40035,6.40035,6.40035,0.00949,0.00949,0.00949,0.96444,11789.25586,11375.76953,0
6.50034,6.50034,6.50034,0.00937,0.00937,0.00937,0.96445,11789.25586,11375.88086,0
6.60034,6.60034,6.60034,0.00920,0.00920,0.00920,0.96447,11789.25586,11376.01367,0
6.70033,6.70033,6.70033,0.00905,0.00905,0.00905,0.96448,11789.25586,11376.13770,0
6.80032,6.80032,6.80032,0.00891,0.00891,0.00891,0.96449,11789.25586,11376.25195,0
6.90032,6.90032,6.90032,0.00878,0.00878,0.00878,0.96450,11789.25586,11376.37207,0
7.00031,7.00031,7.00031,0.00863,0.00863,0.00863,0.96451,11789.25586,11376.48828,0
7.10031,7.10031,7.10031,0.00847,0.00847,0.00847,0.96452,11789.25586,11376.60840,0
7.20031,7.20031,7.20031,0.00841,0.00841,0.00841,0.96452,11789.25586,11376.67969,0
7.30030,7.30030,7.30030,0.00830,0.00830,0.00830,0.96453,11789.25586,11376.77148,0
7.40029,7.40029,7.40029,0.00808,0.00808,0.00808,0.96454,11789.25586,11376.93164,0
7.50029,7.50029,7.50029,0.00802,0.00802,0.00802,0.96455,11789.25586,11376.99902,0
7.60029,7.60029,7.60029,0.00788,0.00788,0.00788,0.96456,11789.25586,11377.10547,0
7.70028,7.70028,7.70028,0.00780,0.00780,0.00780,0.96456,11789.25586,11377.18359,0
7.80028,7.80028,7.80028,0.00769,0.00769,0.00769,0.96457,11789.25586,11377.27246,0
7.90028,7.90028,7.90028,0.00759,0.00759,0.00759,0.96458,11789.25586,11377.35547,0
8.00027,8.00027,8.00027,0.00742,0.00742,0.00742,0.96459,11789.25586,11377.47852,0
8.10027,8.10027,8.10027,0.00739,0.00739,0.00739,0.96459,11789.25586,11377.52441,0
8.20026,8.20026,8.20026,0.00727,0.00727,0.00727,0.96460,11789.25586,11377.62402,0
8.30026,8.30026,8.30026,0.00716,0.00716,0.00716,0.96461,11789.25586,11377.70508,0
8.40026,8.40026,8.40026,0.00712,0.00712,0.00712,0.96461,11789.25586,11377.75195,0
8.50025,8.50025,8.50025,0.00694,0.00694,0.00694,0.96462,11789.25586,11377.87988,0
8.60025,8.60025,8.60025,0.00693,0.00693,0.00693,0.96463,11789.25586,11377.90625,0
8.70025,8.70025,8.70025,0.00677,0.00677,0.00677,0.96464,11789.25586,11378.02051,0
8.80025,8.80025,8.80025,0.00673,0.00673,0.00673,0.96464,11789.25586,11378.06543,0
8.90025,8.90025,8.90025,0.00671,0.00671,0.00671,0.96464,11789.25586,11378.09668,0
9.00024,9.00024,9.00024,0.00649,0.00649,0.00649,0.96465,11789.25586,11378.25000,0
9.10024,9.10024,9.10024,0.00650,0.00650,0.00650,0.96466,11789.25586,11378.26270,0
9.20023,9.20023,9.20023,0.00638,0.00638,0.00638,0.96466,11789.25586,11378.35645,0
9.30023,9.30023,9.30023,0.00632,0.00632,0.00632,0.96467,11789.25586,11378.40332,0
9.40023,9.40023,9.40023,0.00626,0.00626,0.00626,0.96467,11789.25586,11378.45508,0
9.50022,9.50022,9.50022,0.00616,0.00616,0.00616,0.96468,11789.25586,11378.53809,0
9.60022,9.60022,9.60022,0.00610,0.00610,0.00610,0.96468,11789.25586,11378.58496,0
9.70022,9.70022,9.70022,0.00601,0.00601,0.00601,0.96469,11789.25586,11378.65918,0
9.80022,9.80022,9.80022,0.00596,0.00596,0.00596,0.96469,11789.25586,11378.70312,0
9.90022,9.90022,9.90022,0.00590,0.00590,0.00590,0.96470,11789.25586,11378.75195,0
10.00021,10.00021,10.00021,0.00582,0.00582,0.00582,0.96470,11789.25586,11378.82129,0
10.10021,10.10021,10.10021,0.00577,0.00577,0.00577,0.96471,11789.25586,11378.86230,0
10.20021,10.20021,10.20021,0.00566,0.00566,0.00566,0.96471,11789.25586,11378.94531,0
10.30021,10.30021,10.30021,0.00563,0.00563,0.00563,0.96472,11789.25586,11378.97754,0
10.40021,10.40021,10.40021,0.00561,0.00561,0.00561,0.96472,11789.25586,11379.00781,0
10.50020,10.50020,10.50020,0.00550,0.00550,0.00550,0.96473,11789.25586,11379.08594,0
10.60020,10.60020,10.60020,0.00547,0.00547,0.00547,0.96473,11789.25586,11379.11133,0
10.70019,10.70019,10.70019,0.00536,0.00536,0.00536,0.96473,11789.25586,11379.19727,0
10.80019,10.80019,10.80019,0.00533,0.00533,0.00533,0.96474,11789.25586,11379.22656,0
10.90019,10.90019,10.90019,0.00529,0.00529,0.00529,0.96474,11789.25586,11379.26074,0
11.00019,11.00019,11.00019,0.00524,0.00524,0.00524,0.96474,11789.25586,11379.31543,0
11.10019,11.10019,11.10019,0.00516,0.00516,0.00516,0.96475,11789.25586,11379.36230,0
11.20018,11.20018,11.20018,0.00510,0.00510,0.00510,0.96475,11789.25586,11379.41895,0
11.30018,11.30018,11.30018,0.00507,0.00507,0.00507,0.96476,11789.25586,11379.44727,0
11.40018,11.40018,11.40018,0.00502,0.00502,0.00502,0.96476,11789.25586,11379.48145,0
11.50018,11.50018,11.50018,0.00495,0.00495,0.00495,0.96476,11789.25586,11379.53906,0
11.60018,11.60018,11.60018,0.00493,0.00493,0.00493,0.96477,11789.25586,11379.56445,0
11.70018,11.70018,11.70018,0.00483,0.00483,0.00483,0.96477,11789.25586,11379.63379,0
11.80018,11.80018,11.80018,0.00482,0.00482,0.00482,0.96477,11789.25586,11379.65430,0
11.90018,11.90018,11.90018,0.00481,0.00481,0.00481,0.96478,11789.25586,11379.67090,0
12.00017,12.00017,12.00017,0.00469,0.00469,0.00469,0.96478,11789.25586,11379.75195,0
12.10017,12.10017,12.10017,0.00471,0.00471,0.00471,0.96478,11789.25586,11379.74609,0
12.20017,12.20017,12.20017,0.00459,0.00459,0.00459,0.96479,11789.25586,11379.83691,0
12.30017,12.30017,12.30017,0.00458,0.00458,0.00458,0.96479,11789.25586,11379.84473,0
12.40017,12.40017,12.40017,0.00458,0.00458,0.00458,0.96479,11789.25586,11379.85938,0
12.50016,12.50016,12.50016,0.00446,0.00446,0.00446,0.96480,11789.25586,11379.94238,0
12.60016,12.60016,12.60016,0.00447,0.00447,0.00447,0.96480,11789.25586,11379.94336,0
12.70016,12.70016,12.70016,0.00440,0.00440,0.00440,0.96480,11789.25586,11379.99609,0
12.80016,12.80016,12.80016,0.00437,0.00437,0.00437,0.96481,11789.25586,11380.02930,0
12.90016,12.90016,12.90016,0.00436,0.00436,0.00436,0.96481,11789.25586,11380.03711,0
13.00015,13.00015,13.00015,0.00428,0.00428,0.00428,0.96481,11789.25586,11380.10254,0
13.10015,13.10015,13.10015,0.00425,0.00425,0.00425,0.96481,11789.25586,11380.11230,0
13.20015,13.20015,13.20015,0.00420,0.00420,0.00420,0.96482,11789.25586,11380.16992,0
13.30015,13.30015,13.30015,0.00418,0.00418,0.00418,0.96482,11789.25586,11380.18457,0
13.40015,13.40015,13.40015,0.00419,0.00419,0.00419,0.96482,11789.25586,11380.18555,0
13.50015,13.50015,13.50015,0.00406,0.00406,0.00406,0.96483,11789.25586,11380.27344,0
13.60015,13.60015,13.60015,0.00408,0.00408,0.00408,0.96483,11789.25586,11380.26660,0
13.70015,13.70015,13.70015,0.00400,0.00400,0.00400,0.96483,11789.25586,11380.32324,0
13.80015,13.80015,13.80015,0.00400,0.00400,0.00400,0.96483,11789.25586,11380.33691,0
13.90015,13.90015,13.90015,0.00399,0.00399,0.00399,0.96483,11789.25586,11380.34668,0
14.00014,14.00014,14.00014,0.00389,0.00389,0.00389,0.96484,11789.25586,11380.41211,0
14.10014,14.10014,14.10014,0.00391,0.00391,0.00391,0.96484,11789.25586,11380.40918,0
14.20014,14.20014,14.20014,0.00383,0.00383,0.00383,0.96484,11789.25586,11380.46484,0
14.30014,14.30014,14.30014,0.00383,0.00383,0.00383,0.96484,11789.25586,11380.47461,0
14.40014,14.40014,14.40014,0.00381,0.00381,0.00381,0.96485,11789.25586,11380.49609,0
14.50014,14.50014,14.50014,0.00374,0.00374,0.00374,0.96485,11789.25586,11380.54492,0
14.60014,14.60014,14.60014,0.00375,0.00375,0.00375,0.96485,11789.25586,11380.54492,0
14.70013,14.70013,14.70013,0.00368,0.00368,0.00368,0.96485,11789.25586,11380.59375,0
14.80013,14.80013,14.80013,0.00366,0.00366,0.00366,0.96485,11789.25586,11380.61133,0
14.90013,14.90013,14.90013,0.00367,0.00367,0.00367,0.96485,11789.25586,11380.61230,0
15.00013,15.00013,15.00013,0.00357,0.00357,0.00357,0.96486,11789.25586,11380.68164,0
15.10013,15.10013,15.10013,0.00360,0.00360,0.00360,0.96486,11789.25586,11380.66895,0
15.20013,15.20013,15.20013,0.00351,0.00351,0.00351,0.96486,11789.25586,11380.73047,0
15.30013,15.30013,15.30013,0.00351,0.00351,0.00351,0.96487,11789.25586,11380.73633,0
15.40013,15.40013,15.40013,0.00351,0.00351,0.00351,0.96487,11789.25586,11380.74219,0
15.50012,15.50012,15.50012,0.00344,0.00344,0.00344,0.96487,11789.25586,11380.79395,0
15.60013,15.60013,15.60013,0.00346,0.00346,0.00346,0.96487,11789.25586,11380.78711,0
15.70012,15.70012,15.70012,0.00338,0.00338,0.00338,0.96487,11789.25586,11380.84375,0
15.80012,15.80012,15.80012,0.00338,0.00338,0.00338,0.96487,11789.25586,11380.84375,0
15.90012,15.90012,15.90012,0.00344,0.00344,0.00344,0.96487,11789.25586,11380.81445,0
16.00011,16.00011,16.00011,0.00323,0.00323,0.00323,0.96488,11789.25586,11380.95410,0
16.10012,16.10012,16.10012,0.00329,0.00329,0.00329,0.96488,11789.25586,11380.92480,0
16.20012,16.20012,16.20012,0.00327,0.00327,0.00327,0.96488,11789.25586,11380.93555,0
16.30012,16.30012,16.30012,0.00328,0.00328,0.00328,0.96488,11789.25586,11380.93457,0
16.40011,16.40011,16.40011,0.00318,0.00318,0.00318,0.96489,11789.25586,11381.00586,0
16.50011,16.50011,16.50011,0.00319,0.00319,0.00319,0.96489,11789.25586,11381.00391,0
16.60011,16.60011,16.60011,0.00317,0.00317,0.00317,0.96489,11789.25586,11381.02441,0
16.70011,16.70011,16.70011,0.00315,0.00315,0.00315,0.96489,11789.25586,11381.03906,0
16.80011,16.80011,16.80011,0.00318,0.00318,0.00318,0.96489,11789.25586,11381.02539,0
16.90010,16.90010,16.90010,0.00304,0.00304,0.00304,0.96490,11789.25586,11381.12109,0
17.00010,17.00010,17.00010,0.00306,0.00306,0.00306,0.96490,11789.25586,11381.10645,0
17.10011,17.10011,17.10011,0.00305,0.00305,0.00305,0.96490,11789.25586,11381.12109,0
17.20011,17.20011,17.20011,0.00303,0.00303,0.00303,0.96490,11789.25586,11381.13477,0
17.30011,17.30011,17.30011,0.00306,0.00306,0.00306,0.96490,11789.25586,11381.12207,0
17.40010,17.40010,17.40010,0.00292,0.00292,0.00292,0.96491,11789.25586,11381.21484,0
17.50010,17.50010,17.50010,0.00295,0.00295,0.00295,0.96490,11789.25586,11381.20117,0
17.60010,17.60010,17.60010,0.00293,0.00293,0.00293,0.96491,11789.25586,11381.21484,0
17.70010,17.70010,17.70010,0.00292,0.00292,0.00292,0.96491,11789.25586,11381.22754,0
17.80010,17.80010,17.80010,0.00294,0.00294,0.00294,0.96491,11789.25586,11381.21387,0
17.90009,17.90009,17.90009,0.00282,0.00282,0.00282,0.96491,11789.25586,11381.30469,0
18.00009,18.00009,18.00009,0.00284,0.00284,0.00284,0.96491,11789.25586,11381.29199,0
18.10009,18.10009,18.10009,0.00283,0.00283,0.00283,0.96491,11789.25586,11381.30566,0
18.20009,18.20009,18.20009,0.00281,0.00281,0.00281,0.96491,11789.25586,11381.31641,0
18.30009,18.30009,18.30009,0.00283,0.00283,0.00283,0.96491,11789.25586,11381.30469,0
18.40009,18.40009,18.40009,0.00271,0.00271,0.00271,0.96492,11789.25586,11381.39258,0
18.50009,18.50009,18.50009,0.00274,0.00274,0.00274,0.96492,11789.25586,11381.37891,0
18.60009,18.60009,18.60009,0.00272,0.00272,0.00272,0.96492,11789.25586,11381.39062,0
18.70009,18.70009,18.70009,0.00271,0.00271,0.00271,0.96492,11789.25586,11381.40234,0
18.80009,18.80009,18.80009,0.00273,0.00273,0.00273,0.96492,11789.25586,11381.38867,0
18.90009,18.90009,18.90009,0.00262,0.00262,0.00262,0.96493,11789.25586,11381.47363,0
19.00009,19.00009,19.00009,0.00264,0.00264,0.00264,0.96493,11789.25586,11381.45996,0
19.10009,19.10009,19.10009,0.00263,0.00263,0.00263,0.96493,11789.25586,11381.47070,0
19.20009,19.20009,19.20009,0.00261,0.00261,0.00261,0.96493,11789.25586,11381.48242,0
19.30009,19.30009,19.30009,0.00264,0.00264,0.00264,0.96493,11789.25586,11381.46777,0
19.40009,19.40009,19.40009,0.00251,0.00251,0.00251,0.96494,11789.25586,11381.56055,0
19.50009,19.50009,19.50009,0.00258,0.00258,0.00258,0.96493,11789.25586,11381.51953,0
19.60009,19.60009,19.60009,0.00252,0.00252,0.00252,0.96494,11789.25586,11381.55664,0
19.70009,19.70009,19.70009,0.00252,0.00252,0.00252,0.96494,11789.25586,11381.56055,0
19.80009,19.80009,19.80009,0.00254,0.00254,0.00254,0.96493,11789.25586,11381.54688,0
19.90008,19.90008,19.90008,0.00242,0.00242,0.00242,0.96494,11789.25586,11381.63672,0
20.00009,20.00009,20.00009,0.00249,0.00249,0.00249,0.96494,11789.25586,11381.59375,0
20.10008,20.10008,20.10008,0.00243,0.00243,0.00243,0.96494,11789.25586,11381.62891,0
20.20008,20.20008,20.20008,0.00243,0.00243,0.00243,0.96494,11789.25586,11381.63281,0
20.30009,20.30009,20.30009,0.00244,0.00244,0.00244,0.96494,11789.25586,11381.62598,0
20.40008,20.40008,20.40008,0.00237,0.00237,0.00237,0.96495,11789.25586,11381.68750,0
20.50008,20.50008,20.50008,0.00239,0.00239,0.00239,0.96494,11789.25586,11381.67383,0
20.60008,20.60008,20.60008,0.00234,0.00234,0.00234,0.96495,11789.25586,11381.70117,0
20.70008,20.70008,20.70008,0.00235,0.00235,0.00235,0.96495,11789.25586,11381.70312,0
20.80008,20.80008,20.80008,0.00237,0.00237,0.00237,0.96495,11789.25586,11381.68750,0
20.90008,20.90008,20.90008,0.00225,0.00225,0.00225,0.96495,11789.25586,11381.76953,0
21.00008,21.00008,21.00008,0.00233,0.00233,0.00233,0.96495,11789.25586,11381.73633,0
21.10008,21.10008,21.10008,0.00227,0.00227,0.00227,0.96495,11789.25586,11381.76172,0
21.20008,21.20008,21.20008,0.00227,0.00227,0.00227,0.96495,11789.25586,11381.76367,0
21.30008,21.30008,21.30008,0.00229,0.00229,0.00229,0.96495,11789.25586,11381.76172,0
21.40008,21.40008,21.40008,0.00217,0.00217,0.00217,0.96496,11789.25586,11381.84180,0
21.50008,21.50008,21.50008,0.00225,0.00225,0.00225,0.96496,11789.25586,11381.79883,0
21.60008,21.60008,21.60008,0.00219,0.00219,0.00219,0.96496,11789.25586,11381.83691,0
21.70008,21.70008,21.70008,0.00219,0.00219,0.00219,0.96496,11789.25586,11381.83691,0
21.80008,21.80008,21.80008,0.00222,0.00222,0.00222,0.96496,11789.25586,11381.81445,0
21.90008,21.90008,21.90008,0.00210,0.00210,0.00210,0.96496,11789.25586,11381.90723,0
22.00008,22.00008,22.00008,0.00217,0.00217,0.00217,0.96496,11789.25586,11381.85645,0
22.10008,22.10008,22.10008,0.00211,0.00211,0.00211,0.96496,11789.25586,11381.89941,0
22.20008,22.20008,22.20008,0.00212,0.00212,0.00212,0.96496,11789.25586,11381.89844,0
22.30008,22.30008,22.30008,0.00215,0.00215,0.00215,0.96496,11789.25586,11381.88477,0
22.40007,22.40007,22.40007,0.00204,0.00204,0.00204,0.96497,11789.25586,11381.95117,0
22.50007,22.50007,22.50007,0.00207,0.00207,0.00207,0.96497,11789.25586,11381.93457,0
22.60007,22.60007,22.60007,0.00206,0.00206,0.00206,0.96497,11789.25586,11381.94141,0
22.70008,22.70008,22.70008,0.00205,0.00205,0.00205,0.96497,11789.25586,11381.94824,0
22.80008,22.80008,22.80008,0.00208,0.00208,0.00208,0.96497,11789.25586,11381.93262,0
22.90007,22.90007,22.90007,0.00197,0.00197,0.00197,0.96497,11789.25586,11382.00781,0
23.00007,23.00007,23.00007,0.00200,0.00200,0.00200,0.96497,11789.25586,11381.99219,0
23.10007,23.10007,23.10007,0.00199,0.00199,0.00199,0.96497,11789.25586,11381.99805,0
23.20007,23.20007,23.20007,0.00198,0.00198,0.00198,0.96497,11789.25586,11382.00488,0
23.30007,23.30007,23.30007,0.00201,0.00201,0.00201,0.96497,11789.25586,11381.98926,0
23.40007,23.40007,23.40007,0.00190,0.00190,0.00190,0.96498,11789.25586,11382.06348,0
23.50007,23.50007,23.50007,0.00193,0.00193,0.00193,0.96498,11789.25586,11382.04883,0
23.60007,23.60007,23.60007,0.00192,0.00192,0.00192,0.96498,11789.25586,11382.05469,0
23.70007,23.70007,23.70007,0.00192,0.00192,0.00192,0.96498,11789.25586,11382.05957,0
