x,y,z,vx,vy,vz,temperature,density,pressure,is_star
0.05990,0.05990,0.05990,1.62526,1.62526,1.62526,0.85093,11789.25586,10036.81348,0
0.11686,0.11686,0.11686,0.23029,0.23029,0.23029,0.92752,11789.25586,10940.29980,0
0.21185,0.21185,0.21185,0.25284,0.25284,0.25284,0.93686,11789.25586,11050.45898,0
0.30879,0.30879,0.30879,0.19565,0.19565,0.19565,0.94262,11789.25586,11118.37109,0
0.40695,0.40695,0.40695,0.15758,0.15758,0.15758,0.94609,11789.25586,11159.24805,0
0.50574,0.50574,0.50574,0.13138,0.13138,0.13138,0.94838,11789.25586,11186.31836,0
0.60489,0.60489,0.60489,0.11247,0.11247,0.11247,0.95001,11789.25586,11205.49512,0
0.70425,0.70425,0.70425,0.09816,0.09816,0.09816,0.95122,11789.25586,11219.80371,0
0.80376,0.80376,0.80376,0.08705,0.08705,0.08705,0.95216,11789.25586,11230.83984,0
0.90337,0.90337,0.90337,0.07815,0.07815,0.07815,0.95290,11789.25586,11239.62500,0
1.00305,1.00305,1.00305,0.07087,0.07087,0.07087,0.95351,11789.25586,11246.78809,0
1.10278,1.10278,1.10278,0.06480,0.06480,0.06480,0.95401,11789.25586,11252.73438,0
1.20256,1.20256,1.20256,0.05966,0.05966,0.05966,0.95444,11789.25586,11257.75000,0
1.30237,1.30237,1.30237,0.05531,0.05531,0.05531,0.95480,11789.25586,11262.00879,0
1.40221,1.40221,1.40221,0.05150,0.05150,0.05150,0.95511,11789.25586,11265.71582,0
1.50206,1.50206,1.50206,0.04815,0.04815,0.04815,0.95539,11789.25586,11268.96777,0
1.60194,1.60194,1.60194,0.04527,0.04527,0.04527,0.95563,11789.25586,11271.77930,0
1.70183,1.70183,1.70183,0.04267,0.04267,0.04267,0.95584,11789.25586,11274.30566,0
1.80173,1.80173,1.80173,0.04036,0.04036,0.04036,0.95603,11789.25586,11276.54980,0
1.90163,1.90163,1.90163,0.03820,0.03820,0.03820,0.95621,11789.25586,11278.61230,0
2.00156,2.00156,2.00156,0.03639,0.03639,0.03639,0.95636,11789.25586,11280.40137,0
2.10148,2.10148,2.10148,0.03467,0.03467,0.03467,0.95650,11789.25586,11282.05859,0
2.20141,2.20141,2.20141,0.03309,0.03309,0.03309,0.95663,11789.25586,11283.58203,0
2.30135,2.30135,2.30135,0.03166,0.03166,0.03166,0.95675,11789.25586,11284.97559,0
2.40130,2.40130,2.40130,0.03034,0.03034,0.03034,0.95685,11789.25586,11286.24121,0
2.50125,2.50125,2.50125,0.02915,0.02915,0.02915,0.95695,11789.25586,11287.40527,0
2.60120,2.60120,2.60120,0.02800,0.02800,0.02800,0.95705,11789.25586,11288.50781,0
2.70115,2.70115,2.70115,0.02697,0.02697,0.02697,0.95713,11789.25586,11289.50488,0
2.80111,2.80111,2.80111,0.02599,0.02599,0.02599,0.95721,11789.25586,11290.44922,0
2.90107,2.90107,2.90107,0.02511,0.02511,0.02511,0.95728,11789.25586,11291.30859,0
3.00103,3.00103,3.00103,0.02425,0.02425,0.02425,0.95735,11789.25586,11292.13672,0
3.10100,3.10100,3.10100,0.02346,0.02346,0.02346,0.95742,11789.25586,11292.90039,0
3.20097,3.20097,3.20097,0.02273,0.02273,0.02273,0.95748,11789.25586,11293.60840,0
3.30094,3.30094,3.30094,0.02200,0.02200,0.02200,0.95754,11789.25586,11294.30566,0
3.40091,3.40091,3.40091,0.02137,0.02137,0.02137,0.95759,11789.25586,11294.91504,0
3.50088,3.50088,3.50088,0.02072,0.02072,0.02072,0.95764,11789.25586,11295.53711,0
3.60086,3.60086,3.60086,0.02018,0.02018,0.02018,0.95769,11789.25586,11296.08203,0
3.70083,3.70083,3.70083,0.01954,0.01954,0.01954,0.95774,11789.25586,11296.67090,0
3.80081,3.80081,3.80081,0.01908,0.01908,0.01908,0.95778,11789.25586,11297.13672,0
3.90079,3.90079,3.90079,0.01860,0.01860,0.01860,0.95782,11789.25586,11297.60547,0
4.00077,4.00077,4.00077,0.01806,0.01806,0.01806,0.95786,11789.25586,11298.11133,0
4.10075,4.10075,4.10075,0.01760,0.01760,0.01760,0.95790,11789.25586,11298.54883,0
4.20073,4.20073,4.20073,0.01721,0.01721,0.01721,0.95793,11789.25586,11298.93164,0
4.30072,4.30072,4.30072,0.01679,0.01679,0.01679,0.95796,11789.25586,11299.33984,0
4.40070,4.40070,4.40070,0.01638,0.01638,0.01638,0.95800,11789.25586,11299.73438,0
4.50068,4.50068,4.50068,0.01601,0.01601,0.01601,0.95803,11789.25586,11300.08887,0
4.60067,4.60067,4.60067,0.01564,0.01564,0.01564,0.95806,11789.25586,11300.44727,0
4.70065,4.70065,4.70065,0.01532,0.01532,0.01532,0.95809,11789.25586,11300.77051,0
4.80064,4.80064,4.80064,0.01496,0.01496,0.01496,0.95811,11789.25586,11301.10059,0
4.90063,4.90063,4.90063,0.01466,0.01466,0.01466,0.95814,11789.25586,11301.40430,0
5.00061,5.00061,5.00061,0.01434,0.01434,0.01434,0.95816,11789.25586,11301.69727,0
5.10060,5.10060,5.10060,0.01404,0.01404,0.01404,0.95819,11789.25586,11301.98926,0
5.20059,5.20059,5.20059,0.01377,0.01377,0.01377,0.95821,11789.25586,11302.25098,0
5.30057,5.30057,5.30057,0.01349,0.01349,0.01349,0.95823,11789.25586,11302.51953,0
5.40057,5.40057,5.40057,0.01327,0.01327,0.01327,0.95825,11789.25586,11302.75293,0
5.50055,5.50055,5.50055,0.01291,0.01291,0.01291,0.95828,11789.25586,11303.06055,0
5.60054,5.60054,5.60054,0.01275,0.01275,0.01275,0.95830,11789.25586,11303.25098,0
5.70053,5.70053,5.70053,0.01252,0.01252,0.01252,0.95831,11789.25586,11303.46191,0
5.80052,5.80052,5.80052,0.01228,0.01228,0.01228,0.95833,11789.25586,11303.69238,0
5.90051,5.90051,5.90051,0.01204,0.01204,0.01204,0.95835,11789.25586,11303.91992,0
6.00050,6.00050,6.00050,0.01183,0.01183,0.01183,0.95837,11789.25586,11304.12598,0
6.10050,6.10050,6.10050,0.01161,0.01161,0.01161,0.95839,11789.25586,11304.32812,0
6.20049,6.20049,6.20049,0.01146,0.01146,0.01146,0.95840,11789.25586,11304.48828,0
6.30048,6.30048,6.30048,0.01123,0.01123,0.01123,0.95842,11789.25586,11304.70020,0
6.40047,6.40047,6.40047,0.01102,0.01102,0.01102,0.95844,11789.25586,11304.89453,0
6.50046,6.50046,6.50046,0.01089,0.01089,0.01089,0.95845,11789.25586,11305.04297,0
6.60046,6.60046,6.60046,0.01069,0.01069,0.01069,0.95846,11789.25586,11305.22266,0
6.70045,6.70045,6.70045,0.01051,0.01051,0.01051,0.95848,11789.25586,11305.39062,0
6.80044,6.80044,6.80044,0.01035,0.01035,0.01035,0.95849,11789.25586,11305.54590,0
6.90043,6.90043,6.90043,0.01020,0.01020,0.01020,0.95850,11789.25586,11305.70410,0
7.00043,7.00043,7.00043,0.01003,0.01003,0.01003,0.95852,11789.25586,11305.86230,0
7.10042,7.10042,7.10042,0.00983,0.00983,0.00983,0.95853,11789.25586,11306.03125,0
7.20042,7.20042,7.20042,0.00978,0.00978,0.00978,0.95854,11789.25586,11306.11914,0
7.30041,7.30041,7.30041,0.00966,0.00966,0.00966,0.95855,11789.25586,11306.24023,0
7.40040,7.40040,7.40040,0.00938,0.00938,0.00938,0.95857,11789.25586,11306.46777,0
7.50040,7.50040,7.50040,0.00932,0.00932,0.00932,0.95858,11789.25586,11306.55078,0
7.60039,7.60039,7.60039,0.00916,0.00916,0.00916,0.95859,11789.25586,11306.69922,0
7.70039,7.70039,7.70039,0.00906,0.00906,0.00906,0.95860,11789.25586,11306.80078,0
7.80038,7.80038,7.80038,0.00893,0.00893,0.00893,0.95861,11789.25586,11306.92188,0
7.90038,7.90038,7.90038,0.00883,0.00883,0.00883,0.95862,11789.25586,11307.02930,0
8.00037,8.00037,8.00037,0.00861,0.00861,0.00861,0.95863,11789.25586,11307.20703,0
8.10037,8.10037,8.10037,0.00859,0.00859,0.00859,0.95864,11789.25586,11307.25781,0
8.20036,8.20036,8.20036,0.00844,0.00844,0.00844,0.95865,11789.25586,11307.39355,0
8.30035,8.30035,8.30035,0.00831,0.00831,0.00831,0.95866,11789.25586,11307.50781,0
8.40035,8.40035,8.40035,0.00829,0.00829,0.00829,0.95866,11789.25586,11307.56250,0
8.50034,8.50034,8.50034,0.00805,0.00805,0.00805,0.95868,11789.25586,11307.74805,0
8.60034,8.60034,8.60034,0.00807,0.00807,0.00807,0.95868,11789.25586,11307.77246,0
8.70033,8.70033,8.70033,0.00786,0.00786,0.00786,0.95869,11789.25586,11307.93750,0
8.80033,8.80033,8.80033,0.00782,0.00782,0.00782,0.95870,11789.25586,11307.99219,0
8.90033,8.90033,8.90033,0.00781,0.00781,0.00781,0.95870,11789.25586,11308.02832,0
9.00032,9.00032,9.00032,0.00752,0.00752,0.00752,0.95872,11789.25586,11308.25000,0
9.10032,9.10032,9.10032,0.00756,0.00756,0.00756,0.95872,11789.25586,11308.25586,0
9.20032,9.20032,9.20032,0.00741,0.00741,0.00741,0.95873,11789.25586,11308.38379,0
9.30031,9.30031,9.30031,0.00735,0.00735,0.00735,0.95874,11789.25586,11308.44727,0
9.40031,9.40031,9.40031,0.00727,0.00727,0.00727,0.95874,11789.25586,11308.51855,0
9.50030,9.50030,9.50030,0.00716,0.00716,0.00716,0.95875,11789.25586,11308.62891,0
9.60030,9.60030,9.60030,0.00708,0.00708,0.00708,0.95876,11789.25586,11308.69629,0
9.70030,9.70030,9.70030,0.00699,0.00699,0.00699,0.95877,11789.25586,11308.79199,0
9.80029,9.80029,9.80029,0.00693,0.00693,0.00693,0.95877,11789.25586,11308.85352,0
9.90029,9.90029,9.90029,0.00686,0.00686,0.00686,0.95878,11789.25586,11308.91895,0
10.00029,10.00029,10.00029,0.00677,0.00677,0.00677,0.95878,11789.25586,11309.01074,0
10.10029,10.10029,10.10029,0.00671,0.00671,0.00671,0.95879,11789.25586,11309.06641,0
10.20028,10.20028,10.20028,0.00657,0.00657,0.00657,0.95880,11789.25586,11309.18262,0
10.30028,10.30028,10.30028,0.00655,0.00655,0.00655,0.95880,11789.25586,11309.22168,0
10.40028,10.40028,10.40028,0.00652,0.00652,0.00652,0.95881,11789.25586,11309.25977,0
10.50027,10.50027,10.50027,0.00638,0.00638,0.00638,0.95882,11789.25586,11309.37109,0
10.60027,10.60027,10.60027,0.00636,0.00636,0.00636,0.95882,11789.25586,11309.40234,0
10.70026,10.70026,10.70026,0.00622,0.00622,0.00622,0.95883,11789.25586,11309.52246,0
10.80026,10.80026,10.80026,0.00620,0.00620,0.00620,0.95883,11789.25586,11309.55859,0
10.90026,10.90026,10.90026,0.00614,0.00614,0.00614,0.95884,11789.25586,11309.60742,0
11.00026,11.00026,11.00026,0.00609,0.00609,0.00609,0.95884,11789.25586,11309.67578,0
11.10025,11.10025,11.10025,0.00599,0.00599,0.00599,0.95885,11789.25586,11309.74609,0
11.20025,11.20025,11.20025,0.00592,0.00592,0.00592,0.95885,11789.25586,11309.81836,0
11.30025,11.30025,11.30025,0.00589,0.00589,0.00589,0.95886,11789.25586,11309.85645,0
11.40025,11.40025,11.40025,0.00584,0.00584,0.00584,0.95886,11789.25586,11309.90430,0
11.50025,11.50025,11.50025,0.00575,0.00575,0.00575,0.95887,11789.25586,11309.98340,0
11.60024,11.60024,11.60024,0.00573,0.00573,0.00573,0.95887,11789.25586,11310.01562,0
11.70024,11.70024,11.70024,0.00561,0.00561,0.00561,0.95888,11789.25586,11310.11035,0
11.80024,11.80024,11.80024,0.00560,0.00560,0.00560,0.95888,11789.25586,11310.13965,0
11.90024,11.90024,11.90024,0.00559,0.00559,0.00559,0.95888,11789.25586,11310.15625,0
12.00023,12.00023,12.00023,0.00544,0.00544,0.00544,0.95889,11789.25586,11310.27246,0
12.10023,12.10023,12.10023,0.00548,0.00548,0.00548,0.95889,11789.25586,11310.25586,0
12.20023,12.20023,12.20023,0.00533,0.00533,0.00533,0.95890,11789.25586,11310.38477,0
12.30023,12.30023,12.30023,0.00532,0.00532,0.00532,0.95890,11789.25586,11310.39648,0
12.40023,12.40023,12.40023,0.00533,0.00533,0.00533,0.95890,11789.25586,11310.41016,0
12.50022,12.50022,12.50022,0.00518,0.00518,0.00518,0.95891,11789.25586,11310.53027,0
12.60022,12.60022,12.60022,0.00520,0.00520,0.00520,0.95891,11789.25586,11310.52539,0
12.70022,12.70022,12.70022,0.00511,0.00511,0.00511,0.95892,11789.25586,11310.59863,0
12.80022,12.80022,12.80022,0.00507,0.00507,0.00507,0.95892,11789.25586,11310.64160,0
12.90022,12.90022,12.90022,0.00508,0.00508,0.00508,0.95892,11789.25586,11310.64941,0
13.00021,13.00021,13.00021,0.00496,0.00496,0.00496,0.95893,11789.25586,11310.74316,0
13.10021,13.10021,13.10021,0.00494,0.00494,0.00494,0.95893,11789.25586,11310.75781,0
13.20021,13.20021,13.20021,0.00488,0.00488,0.00488,0.95894,11789.25586,11310.83008,0
13.30021,13.30021,13.30021,0.00485,0.00485,0.00485,0.95894,11789.25586,11310.85352,0
13.40021,13.40021,13.40021,0.00487,0.00487,0.00487,0.95894,11789.25586,11310.84961,0
13.50020,13.50020,13.50020,0.00470,0.00470,0.00470,0.95895,11789.25586,11310.97754,0
13.60020,13.60020,13.60020,0.00475,0.00475,0.00475,0.95895,11789.25586,11310.96094,0
13.70020,13.70020,13.70020,0.00465,0.00465,0.00465,0.95896,11789.25586,11311.04199,0
13.80020,13.80020,13.80020,0.00465,0.00465,0.00465,0.95896,11789.25586,11311.05762,0
13.90020,13.90020,13.90020,0.00464,0.00464,0.00464,0.95896,11789.25586,11311.06836,0
14.00019,14.00019,14.00019,0.00452,0.00452,0.00452,0.95897,11789.25586,11311.16309,0
14.10019,14.10019,14.10019,0.00455,0.00455,0.00455,0.95897,11789.25586,11311.15527,0
14.20019,14.20019,14.20019,0.00445,0.00445,0.00445,0.95897,11789.25586,11311.23340,0
14.30019,14.30019,14.30019,0.00446,0.00446,0.00446,0.95897,11789.25586,11311.24219,0
14.40019,14.40019,14.40019,0.00443,0.00443,0.00443,0.95898,11789.25586,11311.27148,0
14.50018,14.50018,14.50018,0.00433,0.00433,0.00433,0.95898,11789.25586,11311.34180,0
14.60019,14.60019,14.60019,0.00437,0.00437,0.00437,0.95898,11789.25586,11311.33594,0
14.70018,14.70018,14.70018,0.00427,0.00427,0.00427,0.95899,11789.25586,11311.40723,0
14.80018,14.80018,14.80018,0.00425,0.00425,0.00425,0.95899,11789.25586,11311.43164,0
14.90018,14.90018,14.90018,0.00427,0.00427,0.00427,0.95899,11789.25586,11311.42676,0
15.00018,15.00018,15.00018,0.00414,0.00414,0.00414,0.95900,11789.25586,11311.52734,0
15.10018,15.10018,15.10018,0.00419,0.00419,0.00419,0.95900,11789.25586,11311.50293,0
15.20017,15.20017,15.20017,0.00407,0.00407,0.00407,0.95900,11789.25586,11311.59375,0
15.30017,15.30017,15.30017,0.00408,0.00408,0.00408,0.95900,11789.25586,11311.59863,0
15.40017,15.40017,15.40017,0.00408,0.00408,0.00408,0.95900,11789.25586,11311.60449,0
15.50017,15.50017,15.50017,0.00400,0.00400,0.00400,0.95901,11789.25586,11311.67578,0
15.60017,15.60017,15.60017,0.00403,0.00403,0.00403,0.95901,11789.25586,11311.66211,0
15.70017,15.70017,15.70017,0.00391,0.00391,0.00391,0.95902,11789.25586,11311.74707,0
15.80017,15.80017,15.80017,0.00393,0.00393,0.00393,0.95902,11789.25586,11311.74316,0
15.90017,15.90017,15.90017,0.00401,0.00401,0.00401,0.95901,11789.25586,11311.69727,0
16.00016,16.00016,16.00016,0.00373,0.00373,0.00373,0.95903,11789.25586,11311.90137,0
16.10016,16.10016,16.10016,0.00382,0.00382,0.00382,0.95903,11789.25586,11311.85254,0
16.20016,16.20016,16.20016,0.00380,0.00380,0.00380,0.95903,11789.25586,11311.86816,0
16.30016,16.30016,16.30016,0.00382,0.00382,0.00382,0.95903,11789.25586,11311.86230,0
16.40016,16.40016,16.40016,0.00369,0.00369,0.00369,0.95904,11789.25586,11311.96582,0
16.50016,16.50016,16.50016,0.00370,0.00370,0.00370,0.95903,11789.25586,11311.96094,0
16.60016,16.60016,16.60016,0.00369,0.00369,0.00369,0.95904,11789.25586,11311.98340,0
16.70016,16.70016,16.70016,0.00365,0.00365,0.00365,0.95904,11789.25586,11312.00781,0
16.80016,16.80016,16.80016,0.00372,0.00372,0.00372,0.95904,11789.25586,11311.98047,0
16.90015,16.90015,16.90015,0.00351,0.00351,0.00351,0.95905,11789.25586,11312.12305,0
17.00015,17.00015,17.00015,0.00356,0.00356,0.00356,0.95905,11789.25586,11312.09863,0
17.10015,17.10015,17.10015,0.00354,0.00354,0.00354,0.95905,11789.25586,11312.11719,0
17.20015,17.20015,17.20015,0.00353,0.00353,0.00353,0.95905,11789.25586,11312.13574,0
17.30015,17.30015,17.30015,0.00357,0.00357,0.00357,0.95905,11789.25586,11312.11426,0
17.40014,17.40014,17.40014,0.00338,0.00338,0.00338,0.95906,11789.25586,11312.25000,0
17.50014,17.50014,17.50014,0.00344,0.00344,0.00344,0.95906,11789.25586,11312.22559,0
17.60014,17.60014,17.60014,0.00340,0.00340,0.00340,0.95906,11789.25586,11312.24512,0
17.70014,17.70014,17.70014,0.00339,0.00339,0.00339,0.95906,11789.25586,11312.26172,0
17.80015,17.80015,17.80015,0.00344,0.00344,0.00344,0.95906,11789.25586,11312.23633,0
17.90014,17.90014,17.90014,0.00325,0.00325,0.00325,0.95907,11789.25586,11312.37109,0
18.00014,18.00014,18.00014,0.00330,0.00330,0.00330,0.95907,11789.25586,11312.34863,0
18.10014,18.10014,18.10014,0.00329,0.00329,0.00329,0.95907,11789.25586,11312.36621,0
18.20014,18.20014,18.20014,0.00326,0.00326,0.00326,0.95907,11789.25586,11312.38184,0
18.30014,18.30014,18.30014,0.00331,0.00331,0.00331,0.95907,11789.25586,11312.35938,0
18.40013,18.40013,18.40013,0.00314,0.00314,0.00314,0.95908,11789.25586,11312.48730,0
18.50013,18.50013,18.50013,0.00318,0.00318,0.00318,0.95908,11789.25586,11312.46680,0
18.60013,18.60013,18.60013,0.00317,0.00317,0.00317,0.95908,11789.25586,11312.48047,0
18.70013,18.70013,18.70013,0.00314,0.00314,0.00314,0.95908,11789.25586,11312.49707,0
18.80013,18.80013,18.80013,0.00319,0.00319,0.00319,0.95908,11789.25586,11312.47559,0
18.90012,18.90012,18.90012,0.00303,0.00303,0.00303,0.95909,11789.25586,11312.59668,0
19.00012,19.00012,19.00012,0.00306,0.00306,0.00306,0.95909,11789.25586,11312.57422,0
19.10012,19.10012,19.10012,0.00305,0.00305,0.00305,0.95909,11789.25586,11312.59082,0
19.20012,19.20012,19.20012,0.00304,0.00304,0.00304,0.95909,11789.25586,11312.60449,0
19.30012,19.30012,19.30012,0.00307,0.00307,0.00307,0.95909,11789.25586,11312.58301,0
19.40011,19.40011,19.40011,0.00290,0.00290,0.00290,0.95910,11789.25586,11312.71680,0
19.50012,19.50012,19.50012,0.00301,0.00301,0.00301,0.95909,11789.25586,11312.64941,0
19.60011,19.60011,19.60011,0.00292,0.00292,0.00292,0.95910,11789.25586,11312.70703,0
19.70012,19.70012,19.70012,0.00293,0.00293,0.00293,0.95910,11789.25586,11312.71094,0
19.80012,19.80012,19.80012,0.00296,0.00296,0.00296,0.95910,11789.25586,11312.68945,0
19.90011,19.90011,19.90011,0.00280,0.00280,0.00280,0.95911,11789.25586,11312.82031,0
20.00011,20.00011,20.00011,0.00290,0.00290,0.00290,0.95910,11789.25586,11312.75293,0
20.10011,20.10011,20.10011,0.00282,0.00282,0.00282,0.95911,11789.25586,11312.80371,0
20.20011,20.20011,20.20011,0.00282,0.00282,0.00282,0.95911,11789.25586,11312.80762,0
20.30011,20.30011,20.30011,0.00284,0.00284,0.00284,0.95911,11789.25586,11312.80078,0
20.40011,20.40011,20.40011,0.00275,0.00275,0.00275,0.95911,11789.25586,11312.87988,0
20.50011,20.50011,20.50011,0.00278,0.00278,0.00278,0.95911,11789.25586,11312.85742,0
20.60011,20.60011,20.60011,0.00272,0.00272,0.00272,0.95911,11789.25586,11312.90137,0
20.70011,20.70011,20.70011,0.00273,0.00273,0.00273,0.95911,11789.25586,11312.90332,0
20.80011,20.80011,20.80011,0.00276,0.00276,0.00276,0.95911,11789.25586,11312.87988,0
20.90010,20.90010,20.90010,0.00261,0.00261,0.00261,0.95912,11789.25586,11312.99805,0
21.00010,21.00010,21.00010,0.00271,0.00271,0.00271,0.95912,11789.25586,11312.94531,0
21.10010,21.10010,21.10010,0.00263,0.00263,0.00263,0.95912,11789.25586,11312.98730,0
21.20010,21.20010,21.20010,0.00264,0.00264,0.00264,0.95912,11789.25586,11312.98828,0
21.30010,21.30010,21.30010,0.00267,0.00267,0.00267,0.95912,11789.25586,11312.97754,0
21.40010,21.40010,21.40010,0.00252,0.00252,0.00252,0.95913,11789.25586,11313.09375,0
21.50010,21.50010,21.50010,0.00261,0.00261,0.00261,0.95913,11789.25586,11313.02734,0
21.60010,21.60010,21.60010,0.00254,0.00254,0.00254,0.95913,11789.25586,11313.08301,0
21.70010,21.70010,21.70010,0.00255,0.00255,0.00255,0.95913,11789.25586,11313.08105,0
21.80010,21.80010,21.80010,0.00258,0.00258,0.00258,0.95913,11789.25586,11313.05176,0
21.90010,21.90010,21.90010,0.00243,0.00243,0.00243,0.95914,11789.25586,11313.17969,0
22.00010,22.00010,22.00010,0.00253,0.00253,0.00253,0.95913,11789.25586,11313.10645,0
22.10010,22.10010,22.10010,0.00246,0.00246,0.00246,0.95914,11789.25586,11313.16699,0
22.20010,22.20010,22.20010,0.00246,0.00246,0.00246,0.95914,11789.25586,11313.16406,0
22.30010,22.30010,22.30010,0.00250,0.00250,0.00250,0.95913,11789.25586,11313.14355,0
22.40010,22.40010,22.40010,0.00237,0.00237,0.00237,0.95914,11789.25586,11313.24121,0
22.50010,22.50010,22.50010,0.00240,0.00240,0.00240,0.95914,11789.25586,11313.21680,0
22.60010,22.60010,22.60010,0.00239,0.00239,0.00239,0.95914,11789.25586,11313.22559,0
22.70010,22.70010,22.70010,0.00238,0.00238,0.00238,0.95914,11789.25586,11313.23438,0
22.80010,22.80010,22.80010,0.00241,0.00241,0.00241,0.95914,11789.25586,11313.21094,0
22.90009,22.90009,22.90009,0.00229,0.00229,0.00229,0.95915,11789.25586,11313.31738,0
23.00010,23.00010,23.00010,0.00232,0.00232,0.00232,0.95915,11789.25586,11313.29395,0
23.10010,23.10010,23.10010,0.00231,0.00231,0.00231,0.95915,11789.25586,11313.30078,0
23.20010,23.20010,23.20010,0.00230,0.00230,0.00230,0.95915,11789.25586,11313.31152,0
23.30010,23.30010,23.30010,0.00234,0.00234,0.00234,0.95915,11789.25586,11313.28711,0
23.40009,23.40009,23.40009,0.00221,0.00221,0.00221,0.95916,11789.25586,11313.39160,0
23.50009,23.50009,23.50009,0.00224,0.00224,0.00224,0.95915,11789.25586,11313.37109,0
23.60009,23.60009,23.60009,0.00224,0.00224,0.00224,0.95915,11789.25586,11313.37793,0
23.70009,23.70009,23.70009,0.00223,0.00223,0.00223,0.95916,11789.25586,11313.38379,0
