x,y,z,vx,vy,vz,temperature,density,pressure,is_star
0.07049,0.07049,0.07049,1.87220,1.87220,1.87220,0.83056,11789.25586,9796.63770,0
0.11792,0.11792,0.11792,0.12993,0.12993,0.12993,0.92278,11789.25586,10884.29297,0
0.21340,0.21340,0.21340,0.26153,0.26153,0.26153,0.93117,11789.25586,10983.24023,0
0.31000,0.31000,0.31000,0.20568,0.20568,0.20568,0.93752,11789.25586,11058.24316,0
0.40793,0.40793,0.40793,0.16666,0.16666,0.16666,0.94141,11789.25586,11104.05469,0
0.50656,0.50656,0.50656,0.13938,0.13938,0.13938,0.94400,11789.25586,11134.58301,0
0.60559,0.60559,0.60559,0.11954,0.11954,0.11954,0.94584,11789.25586,11156.28027,0
0.70486,0.70486,0.70486,0.10446,0.10446,0.10446,0.94721,11789.25586,11172.50586,0
0.80430,0.80430,0.80430,0.09272,0.09272,0.09272,0.94827,11789.25586,11185.04004,0
0.90385,0.90385,0.90385,0.08329,0.08329,0.08329,0.94912,11789.25586,11195.02734,0
1.00349,1.00349,1.00349,0.07557,0.07557,0.07557,0.94981,11789.25586,11203.17578,0
1.10319,1.10319,1.10319,0.06913,0.06913,0.06913,0.95039,11789.25586,11209.94531,0
1.20293,1.20293,1.20293,0.06366,0.06366,0.06366,0.95087,11789.25586,11215.66211,0
1.30272,1.30272,1.30272,0.05903,0.05903,0.05903,0.95128,11789.25586,11220.51270,0
1.40253,1.40253,1.40253,0.05498,0.05498,0.05498,0.95164,11789.25586,11224.73828,0
1.50236,1.50236,1.50236,0.05140,0.05140,0.05140,0.95195,11789.25586,11228.44922,0
1.60222,1.60222,1.60222,0.04834,0.04834,0.04834,0.95223,11789.25586,11231.65234,0
1.70209,1.70209,1.70209,0.04556,0.04556,0.04556,0.95247,11789.25586,11234.53516,0
1.80198,1.80198,1.80198,0.04311,0.04311,0.04311,0.95269,11789.25586,11237.09375,0
1.90187,1.90187,1.90187,0.04080,0.04080,0.04080,0.95289,11789.25586,11239.45410,0
2.00178,2.00178,2.00178,0.03887,0.03887,0.03887,0.95306,11789.25586,11241.49121,0
2.10170,2.10170,2.10170,0.03703,0.03703,0.03703,0.95322,11789.25586,11243.38477,0
2.20162,2.20162,2.20162,0.03535,0.03535,0.03535,0.95337,11789.25586,11245.12305,0
2.30155,2.30155,2.30155,0.03382,0.03382,0.03382,0.95350,11789.25586,11246.71289,0
2.40149,2.40149,2.40149,0.03242,0.03242,0.03242,0.95363,11789.25586,11248.15820,0
2.50143,2.50143,2.50143,0.03115,0.03115,0.03115,0.95374,11789.25586,11249.48730,0
2.60137,2.60137,2.60137,0.02992,0.02992,0.02992,0.95384,11789.25586,11250.74707,0
2.70132,2.70132,2.70132,0.02882,0.02882,0.02882,0.95394,11789.25586,11251.88477,0
2.80127,2.80127,2.80127,0.02777,0.02777,0.02777,0.95403,11789.25586,11252.96484,0
2.90123,2.90123,2.90123,0.02683,0.02683,0.02683,0.95412,11789.25586,11253.94434,0
3.00119,3.00119,3.00119,0.02591,0.02591,0.02591,0.95420,11789.25586,11254.89062,0
3.10115,3.10115,3.10115,0.02507,0.02507,0.02507,0.95427,11789.25586,11255.76270,0
3.20111,3.20111,3.20111,0.02429,0.02429,0.02429,0.95434,11789.25586,11256.57227,0
3.30108,3.30108,3.30108,0.02350,0.02350,0.02350,0.95441,11789.25586,11257.36914,0
3.40105,3.40105,3.40105,0.02284,0.02284,0.02284,0.95447,11789.25586,11258.06445,0
3.50101,3.50101,3.50101,0.02215,0.02215,0.02215,0.95453,11789.25586,11258.77539,0
3.60099,3.60099,3.60099,0.02157,0.02157,0.02157,0.95458,11789.25586,11259.39453,0
3.70096,3.70096,3.70096,0.02088,0.02088,0.02088,0.95464,11789.25586,11260.07324,0
3.80093,3.80093,3.80093,0.02039,0.02039,0.02039,0.95468,11789.25586,11260.60156,0
3.90091,3.90091,3.90091,0.01988,0.01988,0.01988,0.95473,11789.25586,11261.13574,0
4.00088,4.00088,4.00088,0.01930,0.01930,0.01930,0.95477,11789.25586,11261.71582,0
4.10086,4.10086,4.10086,0.01881,0.01881,0.01881,0.95482,11789.25586,11262.21680,0
4.20084,4.20084,4.20084,0.01840,0.01840,0.01840,0.95485,11789.25586,11262.65430,0
4.30082,4.30082,4.30082,0.01795,0.01795,0.01795,0.95489,11789.25586,11263.12012,0
4.40080,4.40080,4.40080,0.01750,0.01750,0.01750,0.95493,11789.25586,11263.57031,0
4.50078,4.50078,4.50078,0.01711,0.01711,0.01711,0.95497,11789.25586,11263.97461,0
4.60076,4.60076,4.60076,0.01671,0.01671,0.01671,0.95500,11789.25586,11264.38672,0
4.70075,4.70075,4.70075,0.01638,0.01638,0.01638,0.95503,11789.25586,11264.75195,0
4.80073,4.80073,4.80073,0.01598,0.01598,0.01598,0.95506,11789.25586,11265.13184,0
4.90072,4.90072,4.90072,0.01567,0.01567,0.01567,0.95509,11789.25586,11265.47656,0
5.00070,5.00070,5.00070,0.01533,0.01533,0.01533,0.95512,11789.25586,11265.81348,0
5.10069,5.10069,5.10069,0.01501,0.01501,0.01501,0.95515,11789.25586,11266.14648,0
5.20067,5.20067,5.20067,0.01472,0.01472,0.01472,0.95518,11789.25586,11266.44629,0
5.30066,5.30066,5.30066,0.01441,0.01441,0.01441,0.95520,11789.25586,11266.75293,0
5.40065,5.40065,5.40065,0.01419,0.01419,0.01419,0.95522,11789.25586,11267.01660,0
5.50063,5.50063,5.50063,0.01379,0.01379,0.01379,0.95525,11789.25586,11267.37500,0
5.60062,5.60062,5.60062,0.01363,0.01363,0.01363,0.95527,11789.25586,11267.58789,0
5.70061,5.70061,5.70061,0.01339,0.01339,0.01339,0.95529,11789.25586,11267.82812,0
5.80060,5.80060,5.80060,0.01313,0.01313,0.01313,0.95532,11789.25586,11268.09375,0
5.90059,5.90059,5.90059,0.01287,0.01287,0.01287,0.95534,11789.25586,11268.35352,0
6.00058,6.00058,6.00058,0.01265,0.01265,0.01265,0.95536,11789.25586,11268.58789,0
6.10057,6.10057,6.10057,0.01241,0.01241,0.01241,0.95538,11789.25586,11268.82227,0
6.20056,6.20056,6.20056,0.01226,0.01226,0.01226,0.95539,11789.25586,11269.00195,0
6.30055,6.30055,6.30055,0.01200,0.01200,0.01200,0.95541,11789.25586,11269.24609,0
6.40054,6.40054,6.40054,0.01178,0.01178,0.01178,0.95543,11789.25586,11269.46777,0
6.50053,6.50053,6.50053,0.01164,0.01164,0.01164,0.95545,11789.25586,11269.63477,0
6.60052,6.60052,6.60052,0.01143,0.01143,0.01143,0.95546,11789.25586,11269.84180,0
6.70051,6.70051,6.70051,0.01124,0.01124,0.01124,0.95548,11789.25586,11270.03613,0
6.80051,6.80051,6.80051,0.01107,0.01107,0.01107,0.95550,11789.25586,11270.21191,0
6.90050,6.90050,6.90050,0.01091,0.01091,0.01091,0.95551,11789.25586,11270.39062,0
7.00049,7.00049,7.00049,0.01073,0.01073,0.01073,0.95553,11789.25586,11270.57227,0
7.10048,7.10048,7.10048,0.01050,0.01050,0.01050,0.95554,11789.25586,11270.76953,0
7.20048,7.20048,7.20048,0.01046,0.01046,0.01046,0.95555,11789.25586,11270.86523,0
7.30047,7.30047,7.30047,0.01033,0.01033,0.01033,0.95556,11789.25586,11271.00195,0
7.40046,7.40046,7.40046,0.01002,0.01002,0.01002,0.95558,11789.25586,11271.26953,0
7.50045,7.50045,7.50045,0.00997,0.00997,0.00997,0.95559,11789.25586,11271.35840,0
7.60045,7.60045,7.60045,0.00979,0.00979,0.00979,0.95561,11789.25586,11271.53027,0
7.70044,7.70044,7.70044,0.00969,0.00969,0.00969,0.95562,11789.25586,11271.64453,0
7.80044,7.80044,7.80044,0.00954,0.00954,0.00954,0.95563,11789.25586,11271.78516,0
7.90043,7.90043,7.90043,0.00945,0.00945,0.00945,0.95564,11789.25586,11271.90527,0
8.00042,8.00042,8.00042,0.00920,0.00920,0.00920,0.95566,11789.25586,11272.11621,0
8.10042,8.10042,8.10042,0.00919,0.00919,0.00919,0.95566,11789.25586,11272.16602,0
8.20041,8.20041,8.20041,0.00903,0.00903,0.00903,0.95567,11789.25586,11272.32324,0
8.30041,8.30041,8.30041,0.00889,0.00889,0.00889,0.95569,11789.25586,11272.45410,0
8.40040,8.40040,8.40040,0.00886,0.00886,0.00886,0.95569,11789.25586,11272.51172,0
8.50039,8.50039,8.50039,0.00859,0.00859,0.00859,0.95571,11789.25586,11272.73242,0
8.60039,8.60039,8.60039,0.00863,0.00863,0.00863,0.95571,11789.25586,11272.75293,0
8.70038,8.70038,8.70038,0.00839,0.00839,0.00839,0.95573,11789.25586,11272.94727,0
8.80038,8.80038,8.80038,0.00836,0.00836,0.00836,0.95573,11789.25586,11273.00586,0
8.90038,8.90038,8.90038,0.00836,0.00836,0.00836,0.95574,11789.25586,11273.04492,0
9.00037,9.00037,9.00037,0.00803,0.00803,0.00803,0.95576,11789.25586,11273.30762,0
9.10037,9.10037,9.10037,0.00809,0.00809,0.00809,0.95576,11789.25586,11273.30664,0
9.20036,9.20036,9.20036,0.00792,0.00792,0.00792,0.95577,11789.25586,11273.45508,0
9.30036,9.30036,9.30036,0.00786,0.00786,0.00786,0.95578,11789.25586,11273.52832,0
9.40035,9.40035,9.40035,0.00777,0.00777,0.00777,0.95578,11789.25586,11273.60938,0
9.50035,9.50035,9.50035,0.00766,0.00766,0.00766,0.95579,11789.25586,11273.73535,0
9.60035,9.60035,9.60035,0.00757,0.00757,0.00757,0.95580,11789.25586,11273.81348,0
9.70034,9.70034,9.70034,0.00747,0.00747,0.00747,0.95581,11789.25586,11273.92188,0
9.80034,9.80034,9.80034,0.00741,0.00741,0.00741,0.95582,11789.25586,11273.99023,0
9.90034,9.90034,9.90034,0.00733,0.00733,0.00733,0.95582,11789.25586,11274.06543,0
10.00033,10.00033,10.00033,0.00723,0.00723,0.00723,0.95583,11789.25586,11274.17090,0
10.10033,10.10033,10.10033,0.00718,0.00718,0.00718,0.95584,11789.25586,11274.23340,0
10.20032,10.20032,10.20032,0.00701,0.00701,0.00701,0.95585,11789.25586,11274.37207,0
10.30032,10.30032,10.30032,0.00700,0.00700,0.00700,0.95585,11789.25586,11274.41309,0
10.40032,10.40032,10.40032,0.00698,0.00698,0.00698,0.95585,11789.25586,11274.45410,0
10.50031,10.50031,10.50031,0.00682,0.00682,0.00682,0.95587,11789.25586,11274.58496,0
10.60031,10.60031,10.60031,0.00681,0.00681,0.00681,0.95587,11789.25586,11274.61816,0
10.70030,10.70030,10.70030,0.00665,0.00665,0.00665,0.95588,11789.25586,11274.75879,0
10.80030,10.80030,10.80030,0.00663,0.00663,0.00663,0.95588,11789.25586,11274.79688,0
10.90030,10.90030,10.90030,0.00656,0.00656,0.00656,0.95589,11789.25586,11274.85449,0
11.00030,11.00030,11.00030,0.00651,0.00651,0.00651,0.95590,11789.25586,11274.92969,0
11.10029,11.10029,11.10029,0.00640,0.00640,0.00640,0.95590,11789.25586,11275.01465,0
11.20029,11.20029,11.20029,0.00633,0.00633,0.00633,0.95591,11789.25586,11275.09668,0
11.30029,11.30029,11.30029,0.00630,0.00630,0.00630,0.95591,11789.25586,11275.13770,0
11.40028,11.40028,11.40028,0.00624,0.00624,0.00624,0.95592,11789.25586,11275.19336,0
11.50028,11.50028,11.50028,0.00615,0.00615,0.00615,0.95593,11789.25586,11275.28516,0
11.60028,11.60028,11.60028,0.00613,0.00613,0.00613,0.95593,11789.25586,11275.31738,0
11.70027,11.70027,11.70027,0.00599,0.00599,0.00599,0.95594,11789.25586,11275.43066,0
11.80027,11.80027,11.80027,0.00599,0.00599,0.00599,0.95594,11789.25586,11275.46191,0
11.90027,11.90027,11.90027,0.00598,0.00598,0.00598,0.95594,11789.25586,11275.47852,0
12.00027,12.00027,12.00027,0.00581,0.00581,0.00581,0.95595,11789.25586,11275.61621,0
12.10027,12.10027,12.10027,0.00587,0.00587,0.00587,0.95595,11789.25586,11275.59082,0
12.20026,12.20026,12.20026,0.00569,0.00569,0.00569,0.95596,11789.25586,11275.74414,0
12.30026,12.30026,12.30026,0.00569,0.00569,0.00569,0.95597,11789.25586,11275.75586,0
12.40026,12.40026,12.40026,0.00570,0.00570,0.00570,0.95597,11789.25586,11275.76855,0
12.50025,12.50025,12.50025,0.00553,0.00553,0.00553,0.95598,11789.25586,11275.91016,0
12.60025,12.60025,12.60025,0.00556,0.00556,0.00556,0.95598,11789.25586,11275.90234,0
12.70025,12.70025,12.70025,0.00546,0.00546,0.00546,0.95598,11789.25586,11275.98828,0
12.80025,12.80025,12.80025,0.00542,0.00542,0.00542,0.95599,11789.25586,11276.03711,0
12.90025,12.90025,12.90025,0.00543,0.00543,0.00543,0.95599,11789.25586,11276.04297,0
13.00024,13.00024,13.00024,0.00531,0.00531,0.00531,0.95600,11789.25586,11276.15332,0
13.10024,13.10024,13.10024,0.00528,0.00528,0.00528,0.95600,11789.25586,11276.16992,0
13.20024,13.20024,13.20024,0.00522,0.00522,0.00522,0.95601,11789.25586,11276.25000,0
13.30024,13.30024,13.30024,0.00519,0.00519,0.00519,0.95601,11789.25586,11276.27734,0
13.40024,13.40024,13.40024,0.00522,0.00522,0.00522,0.95601,11789.25586,11276.27051,0
13.50023,13.50023,13.50023,0.00502,0.00502,0.00502,0.95602,11789.25586,11276.42383,0
13.60023,13.60023,13.60023,0.00508,0.00508,0.00508,0.95602,11789.25586,11276.39941,0
13.70023,13.70023,13.70023,0.00496,0.00496,0.00496,0.95603,11789.25586,11276.49512,0
13.80023,13.80023,13.80023,0.00497,0.00497,0.00497,0.95603,11789.25586,11276.51074,0
13.90023,13.90023,13.90023,0.00496,0.00496,0.00496,0.95603,11789.25586,11276.52246,0
14.00022,14.00022,14.00022,0.00483,0.00483,0.00483,0.95604,11789.25586,11276.63379,0
14.10022,14.10022,14.10022,0.00486,0.00486,0.00486,0.95604,11789.25586,11276.62109,0
14.20022,14.20022,14.20022,0.00476,0.00476,0.00476,0.95605,11789.25586,11276.71289,0
14.30022,14.30022,14.30022,0.00477,0.00477,0.00477,0.95605,11789.25586,11276.72070,0
14.40022,14.40022,14.40022,0.00474,0.00474,0.00474,0.95605,11789.25586,11276.75488,0
14.50021,14.50021,14.50021,0.00462,0.00462,0.00462,0.95606,11789.25586,11276.83789,0
14.60021,14.60021,14.60021,0.00467,0.00467,0.00467,0.95606,11789.25586,11276.82617,0
14.70021,14.70021,14.70021,0.00456,0.00456,0.00456,0.95606,11789.25586,11276.91016,0
14.80021,14.80021,14.80021,0.00454,0.00454,0.00454,0.95607,11789.25586,11276.93945,0
14.90021,14.90021,14.90021,0.00457,0.00457,0.00457,0.95606,11789.25586,11276.93066,0
15.00020,15.00020,15.00020,0.00442,0.00442,0.00442,0.95607,11789.25586,11277.04980,0
15.10020,15.10020,15.10020,0.00449,0.00449,0.00449,0.95607,11789.25586,11277.01660,0
15.20020,15.20020,15.20020,0.00435,0.00435,0.00435,0.95608,11789.25586,11277.12500,0
15.30020,15.30020,15.30020,0.00436,0.00436,0.00436,0.95608,11789.25586,11277.12891,0
15.40020,15.40020,15.40020,0.00436,0.00436,0.00436,0.95608,11789.25586,11277.13574,0
15.50019,15.50019,15.50019,0.00427,0.00427,0.00427,0.95609,11789.25586,11277.21875,0
15.60019,15.60019,15.60019,0.00431,0.00431,0.00431,0.95609,11789.25586,11277.20117,0
15.70019,15.70019,15.70019,0.00418,0.00418,0.00418,0.95610,11789.25586,11277.30176,0
15.80019,15.80019,15.80019,0.00421,0.00421,0.00421,0.95610,11789.25586,11277.29395,0
15.90019,15.90019,15.90019,0.00429,0.00429,0.00429,0.95609,11789.25586,11277.23730,0
16.00018,16.00018,16.00018,0.00399,0.00399,0.00399,0.95611,11789.25586,11277.48047,0
16.10019,16.10019,16.10019,0.00409,0.00409,0.00409,0.95611,11789.25586,11277.41895,0
16.20019,16.20019,16.20019,0.00407,0.00407,0.00407,0.95611,11789.25586,11277.43750,0
16.30019,16.30019,16.30019,0.00409,0.00409,0.00409,0.95611,11789.25586,11277.42969,0
16.40018,16.40018,16.40018,0.00394,0.00394,0.00394,0.95612,11789.25586,11277.55176,0
16.50018,16.50018,16.50018,0.00396,0.00396,0.00396,0.95612,11789.25586,11277.54395,0
16.60018,16.60018,16.60018,0.00395,0.00395,0.00395,0.95612,11789.25586,11277.56836,0
16.70018,16.70018,16.70018,0.00390,0.00390,0.00390,0.95612,11789.25586,11277.59961,0
16.80018,16.80018,16.80018,0.00398,0.00398,0.00398,0.95612,11789.25586,11277.56152,0
16.90017,16.90017,16.90017,0.00375,0.00375,0.00375,0.95613,11789.25586,11277.73438,0
17.00017,17.00017,17.00017,0.00380,0.00380,0.00380,0.95613,11789.25586,11277.70312,0
17.10017,17.10017,17.10017,0.00379,0.00379,0.00379,0.95613,11789.25586,11277.72363,0
17.20017,17.20017,17.20017,0.00377,0.00377,0.00377,0.95613,11789.25586,11277.74414,0
17.30017,17.30017,17.30017,0.00382,0.00382,0.00382,0.95613,11789.25586,11277.71680,0
17.40017,17.40017,17.40017,0.00360,0.00360,0.00360,0.95615,11789.25586,11277.87988,0
17.50017,17.50017,17.50017,0.00368,0.00368,0.00368,0.95614,11789.25586,11277.84570,0
17.60017,17.60017,17.60017,0.00364,0.00364,0.00364,0.95614,11789.25586,11277.87109,0
17.70017,17.70017,17.70017,0.00362,0.00362,0.00362,0.95615,11789.25586,11277.88867,0
17.80017,17.80017,17.80017,0.00369,0.00369,0.00369,0.95614,11789.25586,11277.85547,0
17.90016,17.90016,17.90016,0.00346,0.00346,0.00346,0.95616,11789.25586,11278.01758,0
18.00016,18.00016,18.00016,0.00353,0.00353,0.00353,0.95615,11789.25586,11277.98828,0
18.10016,18.10016,18.10016,0.00352,0.00352,0.00352,0.95616,11789.25586,11278.00586,0
18.20016,18.20016,18.20016,0.00348,0.00348,0.00348,0.95616,11789.25586,11278.02539,0
18.30016,18.30016,18.30016,0.00355,0.00355,0.00355,0.95616,11789.25586,11277.99609,0
18.40015,18.40015,18.40015,0.00335,0.00335,0.00335,0.95617,11789.25586,11278.14844,0
18.50015,18.50015,18.50015,0.00340,0.00340,0.00340,0.95617,11789.25586,11278.12207,0
18.60015,18.60015,18.60015,0.00339,0.00339,0.00339,0.95617,11789.25586,11278.13672,0
18.70015,18.70015,18.70015,0.00336,0.00336,0.00336,0.95617,11789.25586,11278.15625,0
18.80015,18.80015,18.80015,0.00342,0.00342,0.00342,0.95617,11789.25586,11278.12793,0
18.90014,18.90014,18.90014,0.00323,0.00323,0.00323,0.95618,11789.25586,11278.27148,0
19.00014,19.00014,19.00014,0.00328,0.00328,0.00328,0.95618,11789.25586,11278.24512,0
19.10015,19.10015,19.10015,0.00326,0.00326,0.00326,0.95618,11789.25586,11278.26172,0
19.20015,19.20015,19.20015,0.00325,0.00325,0.00325,0.95618,11789.25586,11278.27930,0
19.30015,19.30015,19.30015,0.00329,0.00329,0.00329,0.95618,11789.25586,11278.25195,0
19.40014,19.40014,19.40014,0.00308,0.00308,0.00308,0.95619,11789.25586,11278.41211,0
19.50014,19.50014,19.50014,0.00324,0.00324,0.00324,0.95618,11789.25586,11278.32617,0
19.60014,19.60014,19.60014,0.00311,0.00311,0.00311,0.95619,11789.25586,11278.39844,0
19.70014,19.70014,19.70014,0.00313,0.00313,0.00313,0.95619,11789.25586,11278.39844,0
19.80014,19.80014,19.80014,0.00317,0.00317,0.00317,0.95619,11789.25586,11278.37207,0
19.90013,19.90013,19.90013,0.00298,0.00298,0.00298,0.95620,11789.25586,11278.52832,0
20.00014,20.00014,20.00014,0.00312,0.00312,0.00312,0.95619,11789.25586,11278.44336,0
20.10013,20.10013,20.10013,0.00301,0.00301,0.00301,0.95620,11789.25586,11278.50781,0
20.20013,20.20013,20.20013,0.00302,0.00302,0.00302,0.95620,11789.25586,11278.51172,0
20.30013,20.30013,20.30013,0.00304,0.00304,0.00304,0.95620,11789.25586,11278.50195,0
20.40012,20.40012,20.40012,0.00294,0.00294,0.00294,0.95621,11789.25586,11278.59277,0
20.50013,20.50013,20.50013,0.00298,0.00298,0.00298,0.95620,11789.25586,11278.56543,0
20.60012,20.60012,20.60012,0.00291,0.00291,0.00291,0.95621,11789.25586,11278.61914,0
20.70012,20.70012,20.70012,0.00292,0.00292,0.00292,0.95621,11789.25586,11278.62012,0
20.80012,20.80012,20.80012,0.00295,0.00295,0.00295,0.95621,11789.25586,11278.59180,0
20.90011,20.90011,20.90011,0.00279,0.00279,0.00279,0.95622,11789.25586,11278.73145,0
21.00012,21.00012,21.00012,0.00290,0.00290,0.00290,0.95621,11789.25586,11278.66504,0
21.10011,21.10011,21.10011,0.00281,0.00281,0.00281,0.95622,11789.25586,11278.71777,0
21.20012,21.20012,21.20012,0.00282,0.00282,0.00282,0.95622,11789.25586,11278.71680,0
21.30012,21.30012,21.30012,0.00285,0.00285,0.00285,0.95621,11789.25586,11278.70312,0
21.40011,21.40011,21.40011,0.00269,0.00269,0.00269,0.95623,11789.25586,11278.83984,0
21.50011,21.50011,21.50011,0.00280,0.00280,0.00280,0.95622,11789.25586,11278.76074,0
21.60011,21.60011,21.60011,0.00272,0.00272,0.00272,0.95623,11789.25586,11278.82617,0
21.70011,21.70011,21.70011,0.00272,0.00272,0.00272,0.95623,11789.25586,11278.82324,0
21.80011,21.80011,21.80011,0.00276,0.00276,0.00276,0.95622,11789.25586,11278.78906,0
21.90011,21.90011,21.90011,0.00260,0.00260,0.00260,0.95623,11789.25586,11278.93848,0
22.00011,22.00011,22.00011,0.00270,0.00270,0.00270,0.95623,11789.25586,11278.85254,0
22.10011,22.10011,22.10011,0.00262,0.00262,0.00262,0.95623,11789.25586,11278.92285,0
22.20011,22.20011,22.20011,0.00263,0.00263,0.00263,0.95623,11789.25586,11278.91797,0
22.30011,22.30011,22.30011,0.00267,0.00267,0.00267,0.95623,11789.25586,11278.89355,0
22.40011,22.40011,22.40011,0.00253,0.00253,0.00253,0.95624,11789.25586,11279.00879,0
22.50011,22.50011,22.50011,0.00257,0.00257,0.00257,0.95624,11789.25586,11278.98047,0
22.60011,22.60011,22.60011,0.00256,0.00256,0.00256,0.95624,11789.25586,11278.99023,0
22.70011,22.70011,22.70011,0.00255,0.00255,0.00255,0.95624,11789.25586,11279.00000,0
22.80011,22.80011,22.80011,0.00258,0.00258,0.00258,0.95624,11789.25586,11278.97266,0
22.90011,22.90011,22.90011,0.00244,0.00244,0.00244,0.95625,11789.25586,11279.09668,0
23.00011,23.00011,23.00011,0.00248,0.00248,0.00248,0.95625,11789.25586,11279.06836,0
23.10011,23.10011,23.10011,0.00247,0.00247,0.00247,0.95625,11789.25586,11279.07715,0
23.20011,23.20011,23.20011,0.00246,0.00246,0.00246,0.95625,11789.25586,11279.08789,0
23.30011,23.30011,23.30011,0.00250,0.00250,0.00250,0.95625,11789.25586,11279.05957,0
23.40010,23.40010,23.40010,0.00236,0.00236,0.00236,0.95626,11789.25586,11279.18164,0
23.50010,23.50010,23.50010,0.00240,0.00240,0.00240,0.95625,11789.25586,11279.15625,0
23.60011,23.60011,23.60011,0.00239,0.00239,0.00239,0.95625,11789.25586,11279.16406,0
23.70011,23.70011,23.70011,0.00238,0.00238,0.00238,0.95625,11789.25586,11279.17188,0
