x,y,z,vx,vy,vz,temperature,density,pressure,is_star
0.02874,0.02874,0.02874,0.99906,0.99906,0.99906,0.91665,11789.25586,10812.00000,0
0.10996,0.10996,0.10996,0.29624,0.29624,0.29624,0.95177,11789.25586,11226.29980,0
0.20633,0.20633,0.20633,0.20030,0.20030,0.20030,0.95871,11789.25586,11308.10449,0
0.30461,0.30461,0.30461,0.14835,0.14835,0.14835,0.96201,11789.25586,11347.05273,0
0.40362,0.40362,0.40362,0.11735,0.11735,0.11735,0.96392,11789.25586,11369.58398,0
0.50297,0.50297,0.50297,0.09691,0.09691,0.09691,0.96516,11789.25586,11384.23730,0
0.60252,0.60252,0.60252,0.08246,0.08246,0.08246,0.96603,11789.25586,11394.50879,0
0.70219,0.70219,0.70219,0.07169,0.07169,0.07169,0.96668,11789.25586,11402.11719,0
0.80193,0.80193,0.80193,0.06340,0.06340,0.06340,0.96717,11789.25586,11407.95996,0
0.90173,0.90173,0.90173,0.05680,0.05680,0.05680,0.96757,11789.25586,11412.59375,0
1.00157,1.00157,1.00157,0.05142,0.05142,0.05142,0.96789,11789.25586,11416.36523,0
1.10143,1.10143,1.10143,0.04697,0.04697,0.04697,0.96815,11789.25586,11419.48438,0
1.20131,1.20131,1.20131,0.04320,0.04320,0.04320,0.96837,11789.25586,11422.11328,0
1.30122,1.30122,1.30122,0.04001,0.04001,0.04001,0.96856,11789.25586,11424.34570,0
1.40113,1.40113,1.40113,0.03723,0.03723,0.03723,0.96873,11789.25586,11426.28320,0
1.50106,1.50106,1.50106,0.03480,0.03480,0.03480,0.96887,11789.25586,11427.97852,0
1.60099,1.60099,1.60099,0.03269,0.03269,0.03269,0.96900,11789.25586,11429.44824,0
1.70094,1.70094,1.70094,0.03081,0.03081,0.03081,0.96911,11789.25586,11430.76758,0
1.80088,1.80088,1.80088,0.02913,0.02913,0.02913,0.96921,11789.25586,11431.93848,0
1.90084,1.90084,1.90084,0.02758,0.02758,0.02758,0.96930,11789.25586,11433.00488,0
2.00080,2.00080,2.00080,0.02624,0.02624,0.02624,0.96938,11789.25586,11433.94629,0
2.10076,2.10076,2.10076,0.02500,0.02500,0.02500,0.96945,11789.25586,11434.80371,0
2.20072,2.20072,2.20072,0.02386,0.02386,0.02386,0.96952,11789.25586,11435.59863,0
2.30069,2.30069,2.30069,0.02282,0.02282,0.02282,0.96958,11789.25586,11436.32324,0
2.40066,2.40066,2.40066,0.02188,0.02188,0.02188,0.96963,11789.25586,11436.98047,0
2.50064,2.50064,2.50064,0.02101,0.02101,0.02101,0.96969,11789.25586,11437.58789,0
2.60061,2.60061,2.60061,0.02018,0.02018,0.02018,0.96973,11789.25586,11438.15918,0
2.70059,2.70059,2.70059,0.01944,0.01944,0.01944,0.96978,11789.25586,11438.67773,0
2.80057,2.80057,2.80057,0.01873,0.01873,0.01873,0.96982,11789.25586,11439.16797,0
2.90055,2.90055,2.90055,0.01809,0.01809,0.01809,0.96986,11789.25586,11439.61426,0
3.00053,3.00053,3.00053,0.01747,0.01747,0.01747,0.96989,11789.25586,11440.04395,0
3.10051,3.10051,3.10051,0.01690,0.01690,0.01690,0.96993,11789.25586,11440.44238,0
3.20050,3.20050,3.20050,0.01637,0.01637,0.01637,0.96996,11789.25586,11440.80957,0
3.30048,3.30048,3.30048,0.01585,0.01585,0.01585,0.96999,11789.25586,11441.16992,0
3.40047,3.40047,3.40047,0.01539,0.01539,0.01539,0.97002,11789.25586,11441.48926,0
3.50045,3.50045,3.50045,0.01493,0.01493,0.01493,0.97004,11789.25586,11441.80859,0
3.60044,3.60044,3.60044,0.01452,0.01452,0.01452,0.97007,11789.25586,11442.09570,0
3.70043,3.70043,3.70043,0.01408,0.01408,0.01408,0.97009,11789.25586,11442.39355,0
3.80042,3.80042,3.80042,0.01373,0.01373,0.01373,0.97011,11789.25586,11442.64258,0
3.90041,3.90041,3.90041,0.01338,0.01338,0.01338,0.97013,11789.25586,11442.88770,0
4.00039,4.00039,4.00039,0.01300,0.01300,0.01300,0.97016,11789.25586,11443.14648,0
4.10038,4.10038,4.10038,0.01268,0.01268,0.01268,0.97018,11789.25586,11443.37109,0
4.20038,4.20038,4.20038,0.01239,0.01239,0.01239,0.97019,11789.25586,11443.57324,0
4.30037,4.30037,4.30037,0.01209,0.01209,0.01209,0.97021,11789.25586,11443.78809,0
4.40036,4.40036,4.40036,0.01179,0.01179,0.01179,0.97023,11789.25586,11443.99023,0
4.50035,4.50035,4.50035,0.01152,0.01152,0.01152,0.97024,11789.25586,11444.17090,0
4.60034,4.60034,4.60034,0.01126,0.01126,0.01126,0.97026,11789.25586,11444.35840,0
4.70033,4.70033,4.70033,0.01102,0.01102,0.01102,0.97027,11789.25586,11444.52930,0
4.80033,4.80033,4.80033,0.01077,0.01077,0.01077,0.97029,11789.25586,11444.69629,0
4.90032,4.90032,4.90032,0.01055,0.01055,0.01055,0.97030,11789.25586,11444.85938,0
5.00031,5.00031,5.00031,0.01032,0.01032,0.01032,0.97031,11789.25586,11445.00781,0
5.10031,5.10031,5.10031,0.01011,0.01011,0.01011,0.97033,11789.25586,11445.15820,0
5.20030,5.20030,5.20030,0.00991,0.00991,0.00991,0.97034,11789.25586,11445.29492,0
5.30029,5.30029,5.30029,0.00971,0.00971,0.00971,0.97035,11789.25586,11445.43457,0
5.40029,5.40029,5.40029,0.00954,0.00954,0.00954,0.97036,11789.25586,11445.55859,0
5.50028,5.50028,5.50028,0.00931,0.00931,0.00931,0.97037,11789.25586,11445.70703,0
5.60028,5.60028,5.60028,0.00917,0.00917,0.00917,0.97038,11789.25586,11445.81445,0
5.70027,5.70027,5.70027,0.00901,0.00901,0.00901,0.97039,11789.25586,11445.92285,0
5.80027,5.80027,5.80027,0.00884,0.00884,0.00884,0.97040,11789.25586,11446.04297,0
5.90026,5.90026,5.90026,0.00867,0.00867,0.00867,0.97041,11789.25586,11446.16016,0
6.00026,6.00026,6.00026,0.00851,0.00851,0.00851,0.97042,11789.25586,11446.26855,0
6.10025,6.10025,6.10025,0.00836,0.00836,0.00836,0.97043,11789.25586,11446.37012,0
6.20025,6.20025,6.20025,0.00824,0.00824,0.00824,0.97044,11789.25586,11446.45801,0
6.30024,6.30024,6.30024,0.00808,0.00808,0.00808,0.97045,11789.25586,11446.56348,0
6.40024,6.40024,6.40024,0.00794,0.00794,0.00794,0.97045,11789.25586,11446.66406,0
6.50024,6.50024,6.50024,0.00783,0.00783,0.00783,0.97046,11789.25586,11446.74414,0
6.60023,6.60023,6.60023,0.00769,0.00769,0.00769,0.97047,11789.25586,11446.83594,0
6.70023,6.70023,6.70023,0.00757,0.00757,0.00757,0.97048,11789.25586,11446.92090,0
6.80023,6.80023,6.80023,0.00745,0.00745,0.00745,0.97048,11789.25586,11447.00195,0
6.90022,6.90022,6.90022,0.00734,0.00734,0.00734,0.97049,11789.25586,11447.08984,0
7.00022,7.00022,7.00022,0.00722,0.00722,0.00722,0.97050,11789.25586,11447.16895,0
7.10021,7.10021,7.10021,0.00709,0.00709,0.00709,0.97050,11789.25586,11447.24902,0
7.20021,7.20021,7.20021,0.00702,0.00702,0.00702,0.97051,11789.25586,11447.30371,0
7.30021,7.30021,7.30021,0.00694,0.00694,0.00694,0.97051,11789.25586,11447.36914,0
7.40020,7.40020,7.40020,0.00676,0.00676,0.00676,0.97052,11789.25586,11447.47559,0
7.50020,7.50020,7.50020,0.00670,0.00670,0.00670,0.97053,11789.25586,11447.52637,0
7.60020,7.60020,7.60020,0.00659,0.00659,0.00659,0.97053,11789.25586,11447.59961,0
7.70020,7.70020,7.70020,0.00652,0.00652,0.00652,0.97054,11789.25586,11447.65527,0
7.80019,7.80019,7.80019,0.00643,0.00643,0.00643,0.97054,11789.25586,11447.71777,0
7.90019,7.90019,7.90019,0.00635,0.00635,0.00635,0.97055,11789.25586,11447.77637,0
8.00019,8.00019,8.00019,0.00621,0.00621,0.00621,0.97056,11789.25586,11447.85742,0
8.10019,8.10019,8.10019,0.00617,0.00617,0.00617,0.97056,11789.25586,11447.89551,0
8.20018,8.20018,8.20018,0.00607,0.00607,0.00607,0.97056,11789.25586,11447.96289,0
8.30018,8.30018,8.30018,0.00599,0.00599,0.00599,0.97057,11789.25586,11448.01758,0
8.40018,8.40018,8.40018,0.00595,0.00595,0.00595,0.97057,11789.25586,11448.05469,0
8.50018,8.50018,8.50018,0.00581,0.00581,0.00581,0.97058,11789.25586,11448.13770,0
8.60018,8.60018,8.60018,0.00579,0.00579,0.00579,0.97058,11789.25586,11448.16309,0
8.70017,8.70017,8.70017,0.00566,0.00566,0.00566,0.97059,11789.25586,11448.23730,0
8.80017,8.80017,8.80017,0.00563,0.00563,0.00563,0.97059,11789.25586,11448.27051,0
8.90017,8.90017,8.90017,0.00560,0.00560,0.00560,0.97059,11789.25586,11448.29688,0
9.00016,9.00016,9.00016,0.00543,0.00543,0.00543,0.97060,11789.25586,11448.39648,0
9.10016,9.10016,9.10016,0.00543,0.00543,0.00543,0.97060,11789.25586,11448.41016,0
9.20016,9.20016,9.20016,0.00534,0.00534,0.00534,0.97061,11789.25586,11448.47559,0
9.30016,9.30016,9.30016,0.00528,0.00528,0.00528,0.97061,11789.25586,11448.50781,0
9.40016,9.40016,9.40016,0.00524,0.00524,0.00524,0.97061,11789.25586,11448.54492,0
9.50016,9.50016,9.50016,0.00515,0.00515,0.00515,0.97062,11789.25586,11448.60254,0
9.60015,9.60015,9.60015,0.00510,0.00510,0.00510,0.97062,11789.25586,11448.63281,0
9.70015,9.70015,9.70015,0.00503,0.00503,0.00503,0.97063,11789.25586,11448.68652,0
9.80015,9.80015,9.80015,0.00499,0.00499,0.00499,0.97063,11789.25586,11448.71777,0
9.90015,9.90015,9.90015,0.00493,0.00493,0.00493,0.97063,11789.25586,11448.75098,0
10.00015,10.00015,10.00015,0.00487,0.00487,0.00487,0.97064,11789.25586,11448.80078,0
10.10015,10.10015,10.10015,0.00483,0.00483,0.00483,0.97064,11789.25586,11448.82910,0
10.20014,10.20014,10.20014,0.00474,0.00474,0.00474,0.97064,11789.25586,11448.88379,0
10.30014,10.30014,10.30014,0.00471,0.00471,0.00471,0.97065,11789.25586,11448.91016,0
10.40014,10.40014,10.40014,0.00468,0.00468,0.00468,0.97065,11789.25586,11448.93359,0
10.50014,10.50014,10.50014,0.00460,0.00460,0.00460,0.97065,11789.25586,11448.98535,0
10.60014,10.60014,10.60014,0.00457,0.00457,0.00457,0.97065,11789.25586,11449.00391,0
10.70014,10.70014,10.70014,0.00448,0.00448,0.00448,0.97066,11789.25586,11449.06250,0
10.80013,10.80013,10.80013,0.00446,0.00446,0.00446,0.97066,11789.25586,11449.08496,0
10.90013,10.90013,10.90013,0.00442,0.00442,0.00442,0.97066,11789.25586,11449.10840,0
11.00013,11.00013,11.00013,0.00437,0.00437,0.00437,0.97067,11789.25586,11449.14941,0
11.10013,11.10013,11.10013,0.00431,0.00431,0.00431,0.97067,11789.25586,11449.17676,0
11.20013,11.20013,11.20013,0.00427,0.00427,0.00427,0.97067,11789.25586,11449.21875,0
11.30013,11.30013,11.30013,0.00424,0.00424,0.00424,0.97067,11789.25586,11449.23926,0
11.40013,11.40013,11.40013,0.00420,0.00420,0.00420,0.97068,11789.25586,11449.26270,0
11.50012,11.50012,11.50012,0.00414,0.00414,0.00414,0.97068,11789.25586,11449.30176,0
11.60012,11.60012,11.60012,0.00412,0.00412,0.00412,0.97068,11789.25586,11449.32227,0
11.70012,11.70012,11.70012,0.00404,0.00404,0.00404,0.97068,11789.25586,11449.36719,0
11.80012,11.80012,11.80012,0.00403,0.00403,0.00403,0.97069,11789.25586,11449.38379,0
11.90012,11.90012,11.90012,0.00401,0.00401,0.00401,0.97069,11789.25586,11449.39648,0
12.00012,12.00012,12.00012,0.00392,0.00392,0.00392,0.97069,11789.25586,11449.45020,0
12.10012,12.10012,12.10012,0.00393,0.00393,0.00393,0.97069,11789.25586,11449.45020,0
12.20012,12.20012,12.20012,0.00384,0.00384,0.00384,0.97070,11789.25586,11449.50879,0
12.30012,12.30012,12.30012,0.00383,0.00383,0.00383,0.97070,11789.25586,11449.51562,0
12.40012,12.40012,12.40012,0.00382,0.00382,0.00382,0.97070,11789.25586,11449.52832,0
12.50011,12.50011,12.50011,0.00374,0.00374,0.00374,0.97070,11789.25586,11449.58398,0
12.60011,12.60011,12.60011,0.00374,0.00374,0.00374,0.97070,11789.25586,11449.58496,0
12.70011,12.70011,12.70011,0.00368,0.00368,0.00368,0.97071,11789.25586,11449.62207,0
12.80011,12.80011,12.80011,0.00365,0.00365,0.00365,0.97071,11789.25586,11449.64648,0
12.90011,12.90011,12.90011,0.00364,0.00364,0.00364,0.97071,11789.25586,11449.65234,0
13.00011,13.00011,13.00011,0.00357,0.00357,0.00357,0.97071,11789.25586,11449.69531,0
13.10011,13.10011,13.10011,0.00356,0.00356,0.00356,0.97071,11789.25586,11449.70117,0
13.20011,13.20011,13.20011,0.00351,0.00351,0.00351,0.97072,11789.25586,11449.74414,0
13.30011,13.30011,13.30011,0.00349,0.00349,0.00349,0.97072,11789.25586,11449.75391,0
13.40011,13.40011,13.40011,0.00350,0.00350,0.00350,0.97072,11789.25586,11449.75684,0
13.50010,13.50010,13.50010,0.00340,0.00340,0.00340,0.97072,11789.25586,11449.81348,0
13.60010,13.60010,13.60010,0.00341,0.00341,0.00341,0.97072,11789.25586,11449.81152,0
13.70010,13.70010,13.70010,0.00335,0.00335,0.00335,0.97072,11789.25586,11449.84863,0
13.80010,13.80010,13.80010,0.00334,0.00334,0.00334,0.97073,11789.25586,11449.86035,0
13.90010,13.90010,13.90010,0.00333,0.00333,0.00333,0.97073,11789.25586,11449.86816,0
14.00010,14.00010,14.00010,0.00326,0.00326,0.00326,0.97073,11789.25586,11449.91113,0
14.10010,14.10010,14.10010,0.00326,0.00326,0.00326,0.97073,11789.25586,11449.91113,0
14.20010,14.20010,14.20010,0.00321,0.00321,0.00321,0.97073,11789.25586,11449.94824,0
14.30010,14.30010,14.30010,0.00320,0.00320,0.00320,0.97073,11789.25586,11449.95703,0
14.40010,14.40010,14.40010,0.00318,0.00318,0.00318,0.97074,11789.25586,11449.97070,0
14.50009,14.50009,14.50009,0.00313,0.00313,0.00313,0.97074,11789.25586,11450.00488,0
14.60009,14.60009,14.60009,0.00313,0.00313,0.00313,0.97074,11789.25586,11450.00684,0
14.70009,14.70009,14.70009,0.00308,0.00308,0.00308,0.97074,11789.25586,11450.04004,0
14.80009,14.80009,14.80009,0.00306,0.00306,0.00306,0.97074,11789.25586,11450.05176,0
14.90009,14.90009,14.90009,0.00306,0.00306,0.00306,0.97074,11789.25586,11450.05469,0
15.00009,15.00009,15.00009,0.00299,0.00299,0.00299,0.97075,11789.25586,11450.10156,0
15.10009,15.10009,15.10009,0.00301,0.00301,0.00301,0.97075,11789.25586,11450.09375,0
15.20009,15.20009,15.20009,0.00294,0.00294,0.00294,0.97075,11789.25586,11450.13379,0
15.30009,15.30009,15.30009,0.00294,0.00294,0.00294,0.97075,11789.25586,11450.13965,0
15.40009,15.40009,15.40009,0.00293,0.00293,0.00293,0.97075,11789.25586,11450.14551,0
15.50009,15.50009,15.50009,0.00288,0.00288,0.00288,0.97075,11789.25586,11450.17969,0
15.60009,15.60009,15.60009,0.00289,0.00289,0.00289,0.97075,11789.25586,11450.17676,0
15.70009,15.70009,15.70009,0.00283,0.00283,0.00283,0.97076,11789.25586,11450.21387,0
15.80009,15.80009,15.80009,0.00283,0.00283,0.00283,0.97076,11789.25586,11450.21680,0
15.90009,15.90009,15.90009,0.00286,0.00286,0.00286,0.97075,11789.25586,11450.19922,0
16.00007,16.00007,16.00007,0.00272,0.00272,0.00272,0.97076,11789.25586,11450.28906,0
16.10007,16.10007,16.10007,0.00275,0.00275,0.00275,0.97076,11789.25586,11450.27246,0
16.20008,16.20008,16.20008,0.00273,0.00273,0.00273,0.97076,11789.25586,11450.27930,0
16.30008,16.30008,16.30008,0.00273,0.00273,0.00273,0.97076,11789.25586,11450.27930,0
16.40007,16.40007,16.40007,0.00266,0.00266,0.00266,0.97077,11789.25586,11450.32715,0
16.50007,16.50007,16.50007,0.00267,0.00267,0.00267,0.97077,11789.25586,11450.32715,0
16.60007,16.60007,16.60007,0.00265,0.00265,0.00265,0.97077,11789.25586,11450.34277,0
16.70008,16.70008,16.70008,0.00263,0.00263,0.00263,0.97077,11789.25586,11450.35156,0
16.80008,16.80008,16.80008,0.00265,0.00265,0.00265,0.97077,11789.25586,11450.34473,0
16.90007,16.90007,16.90007,0.00255,0.00255,0.00255,0.97077,11789.25586,11450.40723,0
17.00007,17.00007,17.00007,0.00256,0.00256,0.00256,0.97077,11789.25586,11450.39941,0
17.10007,17.10007,17.10007,0.00255,0.00255,0.00255,0.97077,11789.25586,11450.40918,0
17.20007,17.20007,17.20007,0.00253,0.00253,0.00253,0.97077,11789.25586,11450.41895,0
17.30007,17.30007,17.30007,0.00255,0.00255,0.00255,0.97077,11789.25586,11450.41211,0
17.40007,17.40007,17.40007,0.00245,0.00245,0.00245,0.97078,11789.25586,11450.47266,0
17.50007,17.50007,17.50007,0.00247,0.00247,0.00247,0.97078,11789.25586,11450.46484,0
17.60007,17.60007,17.60007,0.00245,0.00245,0.00245,0.97078,11789.25586,11450.47461,0
17.70007,17.70007,17.70007,0.00244,0.00244,0.00244,0.97078,11789.25586,11450.48340,0
17.80007,17.80007,17.80007,0.00246,0.00246,0.00246,0.97078,11789.25586,11450.47461,0
17.90007,17.90007,17.90007,0.00236,0.00236,0.00236,0.97078,11789.25586,11450.53516,0
18.00007,18.00007,18.00007,0.00237,0.00237,0.00237,0.97078,11789.25586,11450.52832,0
18.10007,18.10007,18.10007,0.00236,0.00236,0.00236,0.97078,11789.25586,11450.53906,0
18.20007,18.20007,18.20007,0.00235,0.00235,0.00235,0.97078,11789.25586,11450.54590,0
18.30007,18.30007,18.30007,0.00237,0.00237,0.00237,0.97078,11789.25586,11450.53906,0
18.40007,18.40007,18.40007,0.00227,0.00227,0.00227,0.97079,11789.25586,11450.59766,0
18.50007,18.50007,18.50007,0.00229,0.00229,0.00229,0.97079,11789.25586,11450.58984,0
18.60007,18.60007,18.60007,0.00228,0.00228,0.00228,0.97079,11789.25586,11450.59766,0
18.70007,18.70007,18.70007,0.00227,0.00227,0.00227,0.97079,11789.25586,11450.60547,0
18.80007,18.80007,18.80007,0.00228,0.00228,0.00228,0.97079,11789.25586,11450.59766,0
18.90006,18.90006,18.90006,0.00219,0.00219,0.00219,0.97079,11789.25586,11450.65430,0
19.00006,19.00006,19.00006,0.00221,0.00221,0.00221,0.97079,11789.25586,11450.64551,0
19.10007,19.10007,19.10007,0.00220,0.00220,0.00220,0.97079,11789.25586,11450.65430,0
19.20007,19.20007,19.20007,0.00219,0.00219,0.00219,0.97079,11789.25586,11450.66211,0
19.30007,19.30007,19.30007,0.00220,0.00220,0.00220,0.97079,11789.25586,11450.65234,0
19.40006,19.40006,19.40006,0.00210,0.00210,0.00210,0.97080,11789.25586,11450.71484,0
19.50006,19.50006,19.50006,0.00216,0.00216,0.00216,0.97080,11789.25586,11450.69141,0
19.60006,19.60006,19.60006,0.00211,0.00211,0.00211,0.97080,11789.25586,11450.71289,0
19.70006,19.70006,19.70006,0.00211,0.00211,0.00211,0.97080,11789.25586,11450.71680,0
19.80006,19.80006,19.80006,0.00212,0.00212,0.00212,0.97080,11789.25586,11450.70801,0
19.90006,19.90006,19.90006,0.00202,0.00202,0.00202,0.97080,11789.25586,11450.76562,0
20.00006,20.00006,20.00006,0.00208,0.00208,0.00208,0.97080,11789.25586,11450.74219,0
20.10006,20.10006,20.10006,0.00203,0.00203,0.00203,0.97080,11789.25586,11450.76270,0
20.20006,20.20006,20.20006,0.00203,0.00203,0.00203,0.97080,11789.25586,11450.76758,0
20.30006,20.30006,20.30006,0.00204,0.00204,0.00204,0.97080,11789.25586,11450.76270,0
20.40006,20.40006,20.40006,0.00198,0.00198,0.00198,0.97081,11789.25586,11450.80762,0
20.50006,20.50006,20.50006,0.00200,0.00200,0.00200,0.97081,11789.25586,11450.79688,0
20.60006,20.60006,20.60006,0.00196,0.00196,0.00196,0.97081,11789.25586,11450.81250,0
20.70006,20.70006,20.70006,0.00196,0.00196,0.00196,0.97081,11789.25586,11450.81543,0
20.80006,20.80006,20.80006,0.00198,0.00198,0.00198,0.97081,11789.25586,11450.80762,0
20.90006,20.90006,20.90006,0.00188,0.00188,0.00188,0.97081,11789.25586,11450.85645,0
21.00006,21.00006,21.00006,0.00194,0.00194,0.00194,0.97081,11789.25586,11450.84082,0
21.10006,21.10006,21.10006,0.00190,0.00190,0.00190,0.97081,11789.25586,11450.85547,0
21.20006,21.20006,21.20006,0.00190,0.00190,0.00190,0.97081,11789.25586,11450.85840,0
21.30006,21.30006,21.30006,0.00192,0.00192,0.00192,0.97081,11789.25586,11450.85645,0
21.40005,21.40005,21.40005,0.00182,0.00182,0.00182,0.97082,11789.25586,11450.91211,0
21.50006,21.50006,21.50006,0.00187,0.00187,0.00187,0.97081,11789.25586,11450.88574,0
21.60006,21.60006,21.60006,0.00183,0.00183,0.00183,0.97081,11789.25586,11450.91016,0
21.70006,21.70006,21.70006,0.00183,0.00183,0.00183,0.97081,11789.25586,11450.91016,0
21.80006,21.80006,21.80006,0.00185,0.00185,0.00185,0.97081,11789.25586,11450.89355,0
21.90005,21.90005,21.90005,0.00176,0.00176,0.00176,0.97082,11789.25586,11450.95801,0
22.00006,22.00006,22.00006,0.00181,0.00181,0.00181,0.97082,11789.25586,11450.92578,0
22.10005,22.10005,22.10005,0.00177,0.00177,0.00177,0.97082,11789.25586,11450.95410,0
22.20005,22.20005,22.20005,0.00177,0.00177,0.00177,0.97082,11789.25586,11450.95410,0
22.30005,22.30005,22.30005,0.00179,0.00179,0.00179,0.97082,11789.25586,11450.94727,0
22.40005,22.40005,22.40005,0.00171,0.00171,0.00171,0.97082,11789.25586,11450.98730,0
22.50005,22.50005,22.50005,0.00173,0.00173,0.00173,0.97082,11789.25586,11450.97754,0
22.60005,22.60005,22.60005,0.00172,0.00172,0.00172,0.97082,11789.25586,11450.98242,0
22.70005,22.70005,22.70005,0.00171,0.00171,0.00171,0.97082,11789.25586,11450.98730,0
22.80005,22.80005,22.80005,0.00173,0.00173,0.00173,0.97082,11789.25586,11450.97754,0
22.90005,22.90005,22.90005,0.00165,0.00165,0.00165,0.97082,11789.25586,11451.02734,0
23.00005,23.00005,23.00005,0.00167,0.00167,0.00167,0.97082,11789.25586,11451.01758,0
23.10005,23.10005,23.10005,0.00166,0.00166,0.00166,0.97082,11789.25586,11451.02246,0
23.20005,23.20005,23.20005,0.00166,0.00166,0.00166,0.97082,11789.25586,11451.02734,0
23.30005,23.30005,23.30005,0.00168,0.00168,0.00168,0.97082,11789.25586,11451.01758,0
23.40005,23.40005,23.40005,0.00159,0.00159,0.00159,0.97083,11789.25586,11451.06641,0
23.50005,23.50005,23.50005,0.00161,0.00161,0.00161,0.97083,11789.25586,11451.05664,0
23.60005,23.60005,23.60005,0.00161,0.00161,0.00161,0.97083,11789.25586,11451.06152,0
23.70005,23.70005,23.70005,0.00160,0.00160,0.00160,0.97083,11789.25586,11451.06543,0
