x,y,z,vx,vy,vz,temperature,density,pressure,is_star
0.07852,0.07852,0.07852,2.09371,2.09371,2.09371,0.81567,11789.25586,9620.97559,0
0.11816,0.11816,0.11816,0.00795,0.00795,0.00795,0.92050,11789.25586,10857.43848,0
0.21446,0.21446,0.21446,0.26614,0.26614,0.26614,0.92734,11789.25586,10938.09277,0
0.31084,0.31084,0.31084,0.21191,0.21191,0.21191,0.93408,11789.25586,11017.62988,0
0.40861,0.40861,0.40861,0.17247,0.17247,0.17247,0.93825,11789.25586,11066.75684,0
0.50713,0.50713,0.50713,0.14456,0.14456,0.14456,0.94103,11789.25586,11099.64258,0
0.60608,0.60608,0.60608,0.12415,0.12415,0.12415,0.94302,11789.25586,11123.07129,0
0.70529,0.70529,0.70529,0.10858,0.10858,0.10858,0.94451,11789.25586,11140.62207,0
0.80468,0.80468,0.80468,0.09643,0.09643,0.09643,0.94566,11789.25586,11154.19141,0
0.90419,0.90419,0.90419,0.08667,0.08667,0.08667,0.94658,11789.25586,11165.01465,0
1.00380,1.00380,1.00380,0.07866,0.07866,0.07866,0.94733,11789.25586,11173.84570,0
1.10347,1.10347,1.10347,0.07197,0.07197,0.07197,0.94795,11789.25586,11181.18945,0
1.20319,1.20319,1.20319,0.06629,0.06629,0.06629,0.94847,11789.25586,11187.39355,0
1.30296,1.30296,1.30296,0.06149,0.06149,0.06149,0.94892,11789.25586,11192.65820,0
1.40275,1.40275,1.40275,0.05727,0.05727,0.05727,0.94931,11789.25586,11197.24512,0
1.50257,1.50257,1.50257,0.05355,0.05355,0.05355,0.94965,11789.25586,11201.27637,0
1.60242,1.60242,1.60242,0.05037,0.05037,0.05037,0.94995,11789.25586,11204.75293,0
1.70228,1.70228,1.70228,0.04748,0.04748,0.04748,0.95021,11789.25586,11207.88281,0
1.80215,1.80215,1.80215,0.04493,0.04493,0.04493,0.95045,11789.25586,11210.66309,0
1.90204,1.90204,1.90204,0.04252,0.04252,0.04252,0.95066,11789.25586,11213.22949,0
2.00194,2.00194,2.00194,0.04052,0.04052,0.04052,0.95085,11789.25586,11215.43945,0
2.10185,2.10185,2.10185,0.03860,0.03860,0.03860,0.95103,11789.25586,11217.49805,0
2.20177,2.20177,2.20177,0.03685,0.03685,0.03685,0.95119,11789.25586,11219.38770,0
2.30169,2.30169,2.30169,0.03525,0.03525,0.03525,0.95133,11789.25586,11221.11523,0
2.40162,2.40162,2.40162,0.03379,0.03379,0.03379,0.95147,11789.25586,11222.68750,0
2.50156,2.50156,2.50156,0.03247,0.03247,0.03247,0.95159,11789.25586,11224.13184,0
2.60149,2.60149,2.60149,0.03119,0.03119,0.03119,0.95170,11789.25586,11225.50000,0
2.70144,2.70144,2.70144,0.03005,0.03005,0.03005,0.95181,11789.25586,11226.73535,0
2.80139,2.80139,2.80139,0.02895,0.02895,0.02895,0.95191,11789.25586,11227.91309,0
2.90134,2.90134,2.90134,0.02798,0.02798,0.02798,0.95200,11789.25586,11228.97461,0
3.00129,3.00129,3.00129,0.02701,0.02701,0.02701,0.95209,11789.25586,11230.00488,0
3.10125,3.10125,3.10125,0.02614,0.02614,0.02614,0.95217,11789.25586,11230.95215,0
3.20121,3.20121,3.20121,0.02533,0.02533,0.02533,0.95224,11789.25586,11231.83008,0
3.30117,3.30117,3.30117,0.02450,0.02450,0.02450,0.95231,11789.25586,11232.69824,0
3.40114,3.40114,3.40114,0.02382,0.02382,0.02382,0.95238,11789.25586,11233.45410,0
3.50111,3.50111,3.50111,0.02309,0.02309,0.02309,0.95244,11789.25586,11234.22754,0
3.60108,3.60108,3.60108,0.02250,0.02250,0.02250,0.95250,11789.25586,11234.89844,0
3.70104,3.70104,3.70104,0.02176,0.02176,0.02176,0.95256,11789.25586,11235.64062,0
3.80102,3.80102,3.80102,0.02127,0.02127,0.02127,0.95261,11789.25586,11236.21191,0
3.90099,3.90099,3.90099,0.02073,0.02073,0.02073,0.95266,11789.25586,11236.79199,0
4.00096,4.00096,4.00096,0.02013,0.02013,0.02013,0.95272,11789.25586,11237.42480,0
4.10094,4.10094,4.10094,0.01961,0.01961,0.01961,0.95276,11789.25586,11237.96973,0
4.20092,4.20092,4.20092,0.01919,0.01919,0.01919,0.95280,11789.25586,11238.44531,0
4.30089,4.30089,4.30089,0.01872,0.01872,0.01872,0.95284,11789.25586,11238.95020,0
4.40087,4.40087,4.40087,0.01825,0.01825,0.01825,0.95289,11789.25586,11239.44141,0
4.50085,4.50085,4.50085,0.01784,0.01784,0.01784,0.95292,11789.25586,11239.88184,0
4.60083,4.60083,4.60083,0.01743,0.01743,0.01743,0.95296,11789.25586,11240.32812,0
4.70082,4.70082,4.70082,0.01708,0.01708,0.01708,0.95300,11789.25586,11240.72461,0
4.80080,4.80080,4.80080,0.01667,0.01667,0.01667,0.95303,11789.25586,11241.14062,0
4.90078,4.90078,4.90078,0.01634,0.01634,0.01634,0.95306,11789.25586,11241.51367,0
5.00076,5.00076,5.00076,0.01599,0.01599,0.01599,0.95309,11789.25586,11241.88086,0
5.10075,5.10075,5.10075,0.01565,0.01565,0.01565,0.95312,11789.25586,11242.24316,0
5.20073,5.20073,5.20073,0.01536,0.01536,0.01536,0.95315,11789.25586,11242.56836,0
5.30072,5.30072,5.30072,0.01503,0.01503,0.01503,0.95318,11789.25586,11242.90430,0
5.40071,5.40071,5.40071,0.01480,0.01480,0.01480,0.95320,11789.25586,11243.18750,0
5.50069,5.50069,5.50069,0.01438,0.01438,0.01438,0.95324,11789.25586,11243.58105,0
5.60068,5.60068,5.60068,0.01421,0.01421,0.01421,0.95326,11789.25586,11243.80859,0
5.70067,5.70067,5.70067,0.01396,0.01396,0.01396,0.95328,11789.25586,11244.07031,0
5.80065,5.80065,5.80065,0.01369,0.01369,0.01369,0.95330,11789.25586,11244.36035,0
5.90064,5.90064,5.90064,0.01341,0.01341,0.01341,0.95333,11789.25586,11244.64355,0
6.00063,6.00063,6.00063,0.01319,0.01319,0.01319,0.95335,11789.25586,11244.89648,0
6.10062,6.10062,6.10062,0.01294,0.01294,0.01294,0.95337,11789.25586,11245.15234,0
6.20061,6.20061,6.20061,0.01278,0.01278,0.01278,0.95339,11789.25586,11245.34473,0
6.30060,6.30060,6.30060,0.01251,0.01251,0.01251,0.95341,11789.25586,11245.61426,0
6.40059,6.40059,6.40059,0.01228,0.01228,0.01228,0.95343,11789.25586,11245.85449,0
6.50058,6.50058,6.50058,0.01214,0.01214,0.01214,0.95345,11789.25586,11246.03516,0
6.60057,6.60057,6.60057,0.01192,0.01192,0.01192,0.95346,11789.25586,11246.26172,0
6.70056,6.70056,6.70056,0.01172,0.01172,0.01172,0.95348,11789.25586,11246.47168,0
6.80055,6.80055,6.80055,0.01154,0.01154,0.01154,0.95350,11789.25586,11246.66406,0
6.90054,6.90054,6.90054,0.01137,0.01137,0.01137,0.95352,11789.25586,11246.85742,0
7.00053,7.00053,7.00053,0.01119,0.01119,0.01119,0.95353,11789.25586,11247.05371,0
7.10052,7.10052,7.10052,0.01095,0.01095,0.01095,0.95355,11789.25586,11247.27246,0
7.20052,7.20052,7.20052,0.01091,0.01091,0.01091,0.95356,11789.25586,11247.37207,0
7.30052,7.30052,7.30052,0.01077,0.01077,0.01077,0.95357,11789.25586,11247.52051,0
7.40050,7.40050,7.40050,0.01044,0.01044,0.01044,0.95360,11789.25586,11247.81738,0
7.50050,7.50050,7.50050,0.01040,0.01040,0.01040,0.95360,11789.25586,11247.91016,0
7.60049,7.60049,7.60049,0.01020,0.01020,0.01020,0.95362,11789.25586,11248.09863,0
7.70048,7.70048,7.70048,0.01010,0.01010,0.01010,0.95363,11789.25586,11248.22070,0
7.80048,7.80048,7.80048,0.00995,0.00995,0.00995,0.95364,11789.25586,11248.37402,0
7.90047,7.90047,7.90047,0.00985,0.00985,0.00985,0.95365,11789.25586,11248.50195,0
8.00046,8.00046,8.00046,0.00959,0.00959,0.00959,0.95367,11789.25586,11248.73730,0
8.10046,8.10046,8.10046,0.00958,0.00958,0.00958,0.95368,11789.25586,11248.78711,0
8.20045,8.20045,8.20045,0.00941,0.00941,0.00941,0.95369,11789.25586,11248.95801,0
8.30044,8.30044,8.30044,0.00927,0.00927,0.00927,0.95371,11789.25586,11249.10352,0
8.40044,8.40044,8.40044,0.00925,0.00925,0.00925,0.95371,11789.25586,11249.16309,0
8.50043,8.50043,8.50043,0.00896,0.00896,0.00896,0.95373,11789.25586,11249.40918,0
8.60043,8.60043,8.60043,0.00900,0.00900,0.00900,0.95373,11789.25586,11249.42480,0
8.70042,8.70042,8.70042,0.00875,0.00875,0.00875,0.95375,11789.25586,11249.64160,0
8.80042,8.80042,8.80042,0.00872,0.00872,0.00872,0.95376,11789.25586,11249.70215,0
8.90042,8.90042,8.90042,0.00872,0.00872,0.00872,0.95376,11789.25586,11249.74023,0
9.00040,9.00040,9.00040,0.00837,0.00837,0.00837,0.95378,11789.25586,11250.03320,0
9.10040,9.10040,9.10040,0.00843,0.00843,0.00843,0.95378,11789.25586,11250.02832,0
9.20039,9.20039,9.20039,0.00826,0.00826,0.00826,0.95380,11789.25586,11250.19043,0
9.30039,9.30039,9.30039,0.00820,0.00820,0.00820,0.95380,11789.25586,11250.26855,0
9.40039,9.40039,9.40039,0.00811,0.00811,0.00811,0.95381,11789.25586,11250.35840,0
9.50038,9.50038,9.50038,0.00799,0.00799,0.00799,0.95382,11789.25586,11250.49414,0
9.60038,9.60038,9.60038,0.00790,0.00790,0.00790,0.95383,11789.25586,11250.58105,0
9.70037,9.70037,9.70037,0.00779,0.00779,0.00779,0.95384,11789.25586,11250.69922,0
9.80037,9.80037,9.80037,0.00773,0.00773,0.00773,0.95385,11789.25586,11250.77344,0
9.90037,9.90037,9.90037,0.00765,0.00765,0.00765,0.95385,11789.25586,11250.85547,0
10.00036,10.00036,10.00036,0.00754,0.00754,0.00754,0.95386,11789.25586,11250.96973,0
10.10036,10.10036,10.10036,0.00749,0.00749,0.00749,0.95387,11789.25586,11251.03711,0
10.20035,10.20035,10.20035,0.00731,0.00731,0.00731,0.95388,11789.25586,11251.19043,0
10.30035,10.30035,10.30035,0.00730,0.00730,0.00730,0.95389,11789.25586,11251.23145,0
10.40035,10.40035,10.40035,0.00728,0.00728,0.00728,0.95389,11789.25586,11251.27539,0
10.50034,10.50034,10.50034,0.00711,0.00711,0.00711,0.95390,11789.25586,11251.41992,0
10.60034,10.60034,10.60034,0.00710,0.00710,0.00710,0.95390,11789.25586,11251.45508,0
10.70033,10.70033,10.70033,0.00693,0.00693,0.00693,0.95392,11789.25586,11251.60938,0
10.80033,10.80033,10.80033,0.00692,0.00692,0.00692,0.95392,11789.25586,11251.64941,0
10.90033,10.90033,10.90033,0.00684,0.00684,0.00684,0.95393,11789.25586,11251.71387,0
11.00032,11.00032,11.00032,0.00679,0.00679,0.00679,0.95393,11789.25586,11251.79199,0
11.10032,11.10032,11.10032,0.00667,0.00667,0.00667,0.95394,11789.25586,11251.88672,0
11.20032,11.20032,11.20032,0.00660,0.00660,0.00660,0.95395,11789.25586,11251.97559,0
11.30031,11.30031,11.30031,0.00657,0.00657,0.00657,0.95395,11789.25586,11252.01953,0
11.40031,11.40031,11.40031,0.00651,0.00651,0.00651,0.95396,11789.25586,11252.08008,0
11.50031,11.50031,11.50031,0.00641,0.00641,0.00641,0.95397,11789.25586,11252.18359,0
11.60031,11.60031,11.60031,0.00640,0.00640,0.00640,0.95397,11789.25586,11252.21582,0
11.70030,11.70030,11.70030,0.00624,0.00624,0.00624,0.95398,11789.25586,11252.34277,0
11.80030,11.80030,11.80030,0.00625,0.00625,0.00625,0.95398,11789.25586,11252.37402,0
11.90030,11.90030,11.90030,0.00624,0.00624,0.00624,0.95398,11789.25586,11252.39062,0
12.00029,12.00029,12.00029,0.00606,0.00606,0.00606,0.95400,11789.25586,11252.54395,0
12.10029,12.10029,12.10029,0.00612,0.00612,0.00612,0.95399,11789.25586,11252.51367,0
12.20028,12.20028,12.20028,0.00593,0.00593,0.00593,0.95401,11789.25586,11252.68359,0
12.30028,12.30028,12.30028,0.00593,0.00593,0.00593,0.95401,11789.25586,11252.69531,0
12.40028,12.40028,12.40028,0.00595,0.00595,0.00595,0.95401,11789.25586,11252.70508,0
12.50027,12.50027,12.50027,0.00576,0.00576,0.00576,0.95402,11789.25586,11252.86230,0
12.60028,12.60028,12.60028,0.00580,0.00580,0.00580,0.95402,11789.25586,11252.85156,0
12.70027,12.70027,12.70027,0.00569,0.00569,0.00569,0.95403,11789.25586,11252.94629,0
12.80027,12.80027,12.80027,0.00566,0.00566,0.00566,0.95404,11789.25586,11252.99707,0
12.90027,12.90027,12.90027,0.00567,0.00567,0.00567,0.95404,11789.25586,11253.00293,0
13.00027,13.00027,13.00027,0.00553,0.00553,0.00553,0.95405,11789.25586,11253.12500,0
13.10026,13.10026,13.10026,0.00551,0.00551,0.00551,0.95405,11789.25586,11253.14355,0
13.20026,13.20026,13.20026,0.00544,0.00544,0.00544,0.95406,11789.25586,11253.23047,0
13.30026,13.30026,13.30026,0.00541,0.00541,0.00541,0.95406,11789.25586,11253.26074,0
13.40026,13.40026,13.40026,0.00545,0.00545,0.00545,0.95406,11789.25586,11253.25000,0
13.50025,13.50025,13.50025,0.00523,0.00523,0.00523,0.95407,11789.25586,11253.42188,0
13.60025,13.60025,13.60025,0.00530,0.00530,0.00530,0.95407,11789.25586,11253.39160,0
13.70025,13.70025,13.70025,0.00518,0.00518,0.00518,0.95408,11789.25586,11253.49805,0
13.80025,13.80025,13.80025,0.00518,0.00518,0.00518,0.95408,11789.25586,11253.51367,0
13.90025,13.90025,13.90025,0.00518,0.00518,0.00518,0.95408,11789.25586,11253.52539,0
14.00024,14.00024,14.00024,0.00503,0.00503,0.00503,0.95409,11789.25586,11253.65039,0
14.10024,14.10024,14.10024,0.00507,0.00507,0.00507,0.95409,11789.25586,11253.63379,0
14.20024,14.20024,14.20024,0.00496,0.00496,0.00496,0.95410,11789.25586,11253.73633,0
14.30024,14.30024,14.30024,0.00497,0.00497,0.00497,0.95410,11789.25586,11253.74316,0
14.40024,14.40024,14.40024,0.00494,0.00494,0.00494,0.95410,11789.25586,11253.77930,0
14.50023,14.50023,14.50023,0.00482,0.00482,0.00482,0.95411,11789.25586,11253.87305,0
14.60023,14.60023,14.60023,0.00488,0.00488,0.00488,0.95411,11789.25586,11253.85645,0
14.70023,14.70023,14.70023,0.00476,0.00476,0.00476,0.95412,11789.25586,11253.95020,0
14.80023,14.80023,14.80023,0.00474,0.00474,0.00474,0.95412,11789.25586,11253.98242,0
14.90023,14.90023,14.90023,0.00477,0.00477,0.00477,0.95412,11789.25586,11253.97070,0
15.00022,15.00022,15.00022,0.00460,0.00460,0.00460,0.95413,11789.25586,11254.10352,0
15.10022,15.10022,15.10022,0.00469,0.00469,0.00469,0.95413,11789.25586,11254.06348,0
15.20022,15.20022,15.20022,0.00453,0.00453,0.00453,0.95414,11789.25586,11254.18457,0
15.30022,15.30022,15.30022,0.00455,0.00455,0.00455,0.95414,11789.25586,11254.18750,0
15.40022,15.40022,15.40022,0.00455,0.00455,0.00455,0.95414,11789.25586,11254.19238,0
15.50021,15.50021,15.50021,0.00445,0.00445,0.00445,0.95414,11789.25586,11254.28516,0
15.60021,15.60021,15.60021,0.00450,0.00450,0.00450,0.95414,11789.25586,11254.26367,0
15.70021,15.70021,15.70021,0.00435,0.00435,0.00435,0.95415,11789.25586,11254.37500,0
15.80021,15.80021,15.80021,0.00438,0.00438,0.00438,0.95415,11789.25586,11254.36523,0
15.90021,15.90021,15.90021,0.00448,0.00448,0.00448,0.95415,11789.25586,11254.30078,0
16.00020,16.00020,16.00020,0.00415,0.00415,0.00415,0.95417,11789.25586,11254.57227,0
16.10020,16.10020,16.10020,0.00426,0.00426,0.00426,0.95416,11789.25586,11254.50098,0
16.20020,16.20020,16.20020,0.00424,0.00424,0.00424,0.95416,11789.25586,11254.52051,0
16.30020,16.30020,16.30020,0.00426,0.00426,0.00426,0.95416,11789.25586,11254.51074,0
16.40020,16.40020,16.40020,0.00410,0.00410,0.00410,0.95418,11789.25586,11254.64746,0
16.50020,16.50020,16.50020,0.00413,0.00413,0.00413,0.95417,11789.25586,11254.63770,0
16.60020,16.60020,16.60020,0.00412,0.00412,0.00412,0.95418,11789.25586,11254.66309,0
16.70020,16.70020,16.70020,0.00406,0.00406,0.00406,0.95418,11789.25586,11254.69824,0
16.80020,16.80020,16.80020,0.00416,0.00416,0.00416,0.95418,11789.25586,11254.65332,0
16.90019,16.90019,16.90019,0.00391,0.00391,0.00391,0.95419,11789.25586,11254.84766,0
17.00019,17.00019,17.00019,0.00396,0.00396,0.00396,0.95419,11789.25586,11254.81152,0
17.10019,17.10019,17.10019,0.00395,0.00395,0.00395,0.95419,11789.25586,11254.83398,0
17.20019,17.20019,17.20019,0.00393,0.00393,0.00393,0.95419,11789.25586,11254.85547,0
17.30019,17.30019,17.30019,0.00399,0.00399,0.00399,0.95419,11789.25586,11254.82324,0
17.40018,17.40018,17.40018,0.00375,0.00375,0.00375,0.95421,11789.25586,11255.00684,0
17.50018,17.50018,17.50018,0.00384,0.00384,0.00384,0.95420,11789.25586,11254.96582,0
17.60018,17.60018,17.60018,0.00379,0.00379,0.00379,0.95420,11789.25586,11254.99414,0
17.70018,17.70018,17.70018,0.00378,0.00378,0.00378,0.95421,11789.25586,11255.01367,0
17.80018,17.80018,17.80018,0.00386,0.00386,0.00386,0.95420,11789.25586,11254.97266,0
17.90017,17.90017,17.90017,0.00360,0.00360,0.00360,0.95422,11789.25586,11255.15820,0
18.00018,18.00018,18.00018,0.00368,0.00368,0.00368,0.95422,11789.25586,11255.12109,0
18.10018,18.10018,18.10018,0.00367,0.00367,0.00367,0.95422,11789.25586,11255.14062,0
18.20017,18.20017,18.20017,0.00363,0.00363,0.00363,0.95422,11789.25586,11255.16406,0
18.30018,18.30018,18.30018,0.00371,0.00371,0.00371,0.95422,11789.25586,11255.12695,0
18.40017,18.40017,18.40017,0.00349,0.00349,0.00349,0.95423,11789.25586,11255.29785,0
18.50017,18.50017,18.50017,0.00354,0.00354,0.00354,0.95423,11789.25586,11255.26758,0
18.60017,18.60017,18.60017,0.00354,0.00354,0.00354,0.95423,11789.25586,11255.28320,0
18.70017,18.70017,18.70017,0.00350,0.00350,0.00350,0.95423,11789.25586,11255.30664,0
18.80017,18.80017,18.80017,0.00357,0.00357,0.00357,0.95423,11789.25586,11255.27148,0
18.90016,18.90016,18.90016,0.00336,0.00336,0.00336,0.95424,11789.25586,11255.43262,0
19.00016,19.00016,19.00016,0.00342,0.00342,0.00342,0.95424,11789.25586,11255.40234,0
19.10016,19.10016,19.10016,0.00340,0.00340,0.00340,0.95424,11789.25586,11255.41992,0
19.20016,19.20016,19.20016,0.00339,0.00339,0.00339,0.95424,11789.25586,11255.43848,0
19.30016,19.30016,19.30016,0.00344,0.00344,0.00344,0.95424,11789.25586,11255.40723,0
19.40015,19.40015,19.40015,0.00320,0.00320,0.00320,0.95426,11789.25586,11255.58691,0
19.50016,19.50016,19.50016,0.00338,0.00338,0.00338,0.95425,11789.25586,11255.48730,0
19.60015,19.60015,19.60015,0.00324,0.00324,0.00324,0.95425,11789.25586,11255.57031,0
19.70015,19.70015,19.70015,0.00327,0.00327,0.00327,0.95425,11789.25586,11255.56836,0
19.80015,19.80015,19.80015,0.00332,0.00332,0.00332,0.95425,11789.25586,11255.53906,0
19.90014,19.90014,19.90014,0.00309,0.00309,0.00309,0.95427,11789.25586,11255.71289,0
20.00015,20.00015,20.00015,0.00326,0.00326,0.00326,0.95426,11789.25586,11255.61426,0
20.10014,20.10014,20.10014,0.00313,0.00313,0.00313,0.95426,11789.25586,11255.68848,0
20.20014,20.20014,20.20014,0.00314,0.00314,0.00314,0.95426,11789.25586,11255.69043,0
20.30015,20.30015,20.30015,0.00318,0.00318,0.00318,0.95426,11789.25586,11255.67871,0
20.40014,20.40014,20.40014,0.00306,0.00306,0.00306,0.95427,11789.25586,11255.78027,0
20.50014,20.50014,20.50014,0.00311,0.00311,0.00311,0.95427,11789.25586,11255.74707,0
20.60014,20.60014,20.60014,0.00303,0.00303,0.00303,0.95427,11789.25586,11255.80859,0
20.70014,20.70014,20.70014,0.00304,0.00304,0.00304,0.95427,11789.25586,11255.80762,0
20.80014,20.80014,20.80014,0.00309,0.00309,0.00309,0.95427,11789.25586,11255.77637,0
20.90013,20.90013,20.90013,0.00289,0.00289,0.00289,0.95428,11789.25586,11255.93164,0
21.00014,21.00014,21.00014,0.00303,0.00303,0.00303,0.95428,11789.25586,11255.85547,0
21.10013,21.10013,21.10013,0.00293,0.00293,0.00293,0.95428,11789.25586,11255.91602,0
21.20013,21.20013,21.20013,0.00294,0.00294,0.00294,0.95428,11789.25586,11255.91406,0
21.30013,21.30013,21.30013,0.00298,0.00298,0.00298,0.95428,11789.25586,11255.89453,0
21.40012,21.40012,21.40012,0.00280,0.00280,0.00280,0.95429,11789.25586,11256.04883,0
21.50013,21.50013,21.50013,0.00292,0.00292,0.00292,0.95429,11789.25586,11255.95801,0
21.60012,21.60012,21.60012,0.00283,0.00283,0.00283,0.95429,11789.25586,11256.03223,0
21.70012,21.70012,21.70012,0.00284,0.00284,0.00284,0.95429,11789.25586,11256.02930,0
21.80012,21.80012,21.80012,0.00288,0.00288,0.00288,0.95429,11789.25586,11255.99121,0
21.90012,21.90012,21.90012,0.00271,0.00271,0.00271,0.95430,11789.25586,11256.15527,0
22.00012,22.00012,22.00012,0.00282,0.00282,0.00282,0.95430,11789.25586,11256.05859,0
22.10012,22.10012,22.10012,0.00274,0.00274,0.00274,0.95430,11789.25586,11256.13672,0
22.20012,22.20012,22.20012,0.00275,0.00275,0.00275,0.95430,11789.25586,11256.13281,0
22.30012,22.30012,22.30012,0.00278,0.00278,0.00278,0.95430,11789.25586,11256.10352,0
22.40012,22.40012,22.40012,0.00264,0.00264,0.00264,0.95431,11789.25586,11256.23242,0
22.50012,22.50012,22.50012,0.00268,0.00268,0.00268,0.95431,11789.25586,11256.20020,0
22.60012,22.60012,22.60012,0.00267,0.00267,0.00267,0.95431,11789.25586,11256.20996,0
22.70012,22.70012,22.70012,0.00266,0.00266,0.00266,0.95431,11789.25586,11256.22168,0
22.80012,22.80012,22.80012,0.00269,0.00269,0.00269,0.95431,11789.25586,11256.19043,0
22.90011,22.90011,22.90011,0.00255,0.00255,0.00255,0.95432,11789.25586,11256.32715,0
23.00011,23.00011,23.00011,0.00259,0.00259,0.00259,0.95432,11789.25586,11256.29688,0
23.10011,23.10011,23.10011,0.00258,0.00258,0.00258,0.95432,11789.25586,11256.30566,0
23.20012,23.20012,23.20012,0.00257,0.00257,0.00257,0.95432,11789.25586,11256.31738,0
23.30012,23.30012,23.30012,0.00261,0.00261,0.00261,0.95431,11789.25586,11256.28516,0
23.40011,23.40011,23.40011,0.00246,0.00246,0.00246,0.95433,11789.25586,11256.42090,0
23.50011,23.50011,23.50011,0.00250,0.00250,0.00250,0.95432,11789.25586,11256.39258,0
23.60011,23.60011,23.60011,0.00249,0.00249,0.00249,0.95432,11789.25586,11256.40039,0
23.70011,23.70011,23.70011,0.00249,0.00249,0.00249,0.95432,11789.25586,11256.40820,0
