x,y,z,vx,vy,vz,temperature,density,pressure,is_star
0.08766,0.08766,0.08766,2.41429,2.41429,2.41429,0.79926,11793.70117,9430.98242,0
0.11769,0.11769,0.11769,-0.21150,-0.21150,-0.21150,0.91953,11793.70117,10850.06738,0
0.21553,0.21553,0.21553,0.26968,0.26968,0.26968,0.92350,11789.25586,10892.78613,0
0.31170,0.31170,0.31170,0.21773,0.21773,0.21773,0.93061,11789.25586,10976.64062,0
0.40932,0.40932,0.40932,0.17807,0.17807,0.17807,0.93505,11789.25586,11029.08203,0
0.50772,0.50772,0.50772,0.14962,0.14962,0.14962,0.93804,11789.25586,11064.35938,0
0.60658,0.60658,0.60658,0.12867,0.12867,0.12867,0.94018,11789.25586,11089.55762,0
0.70573,0.70573,0.70573,0.11264,0.11264,0.11264,0.94178,11789.25586,11108.46680,0
0.80507,0.80507,0.80507,0.10010,0.10010,0.10010,0.94302,11789.25586,11123.10059,0
0.90455,0.90455,0.90455,0.09001,0.09001,0.09001,0.94401,11789.25586,11134.78223,0
1.00412,1.00412,1.00412,0.08173,0.08173,0.08173,0.94482,11789.25586,11144.32031,0
1.10377,1.10377,1.10377,0.07479,0.07479,0.07479,0.94549,11789.25586,11152.25586,0
1.20347,1.20347,1.20347,0.06891,0.06891,0.06891,0.94606,11789.25586,11158.96191,0
1.30321,1.30321,1.30321,0.06393,0.06393,0.06393,0.94655,11789.25586,11164.65234,0
1.40299,1.40299,1.40299,0.05955,0.05955,0.05955,0.94697,11789.25586,11169.61523,0
1.50279,1.50279,1.50279,0.05568,0.05568,0.05568,0.94734,11789.25586,11173.97656,0
1.60262,1.60262,1.60262,0.05238,0.05238,0.05238,0.94766,11789.25586,11177.73730,0
1.70247,1.70247,1.70247,0.04938,0.04938,0.04938,0.94794,11789.25586,11181.12402,0
1.80234,1.80234,1.80234,0.04673,0.04673,0.04673,0.94820,11789.25586,11184.13086,0
1.90221,1.90221,1.90221,0.04422,0.04422,0.04422,0.94843,11789.25586,11186.91309,0
2.00211,2.00211,2.00211,0.04215,0.04215,0.04215,0.94864,11789.25586,11189.30078,0
2.10201,2.10201,2.10201,0.04016,0.04016,0.04016,0.94882,11789.25586,11191.53125,0
2.20192,2.20192,2.20192,0.03834,0.03834,0.03834,0.94900,11789.25586,11193.57715,0
2.30183,2.30183,2.30183,0.03668,0.03668,0.03668,0.94916,11789.25586,11195.44727,0
2.40176,2.40176,2.40176,0.03516,0.03516,0.03516,0.94930,11789.25586,11197.15039,0
2.50169,2.50169,2.50169,0.03379,0.03379,0.03379,0.94943,11789.25586,11198.71387,0
2.60162,2.60162,2.60162,0.03245,0.03245,0.03245,0.94956,11789.25586,11200.19629,0
2.70156,2.70156,2.70156,0.03127,0.03127,0.03127,0.94967,11789.25586,11201.53320,0
2.80150,2.80150,2.80150,0.03013,0.03013,0.03013,0.94978,11789.25586,11202.80859,0
2.90145,2.90145,2.90145,0.02911,0.02911,0.02911,0.94988,11789.25586,11203.95898,0
3.00140,3.00140,3.00140,0.02811,0.02811,0.02811,0.94997,11789.25586,11205.07422,0
3.10136,3.10136,3.10136,0.02720,0.02720,0.02720,0.95006,11789.25586,11206.10254,0
3.20132,3.20132,3.20132,0.02636,0.02636,0.02636,0.95014,11789.25586,11207.05078,0
3.30127,3.30127,3.30127,0.02550,0.02550,0.02550,0.95022,11789.25586,11207.99316,0
3.40124,3.40124,3.40124,0.02479,0.02479,0.02479,0.95029,11789.25586,11208.80957,0
3.50120,3.50120,3.50120,0.02403,0.02403,0.02403,0.95036,11789.25586,11209.65039,0
3.60117,3.60117,3.60117,0.02342,0.02342,0.02342,0.95042,11789.25586,11210.37305,0
3.70113,3.70113,3.70113,0.02264,0.02264,0.02264,0.95049,11789.25586,11211.18262,0
3.80110,3.80110,3.80110,0.02213,0.02213,0.02213,0.95054,11789.25586,11211.79785,0
3.90108,3.90108,3.90108,0.02157,0.02157,0.02157,0.95060,11789.25586,11212.42480,0
4.00105,4.00105,4.00105,0.02094,0.02094,0.02094,0.95065,11789.25586,11213.11133,0
4.10102,4.10102,4.10102,0.02041,0.02041,0.02041,0.95070,11789.25586,11213.70312,0
4.20100,4.20100,4.20100,0.01997,0.01997,0.01997,0.95075,11789.25586,11214.21777,0
4.30097,4.30097,4.30097,0.01948,0.01948,0.01948,0.95079,11789.25586,11214.76465,0
4.40095,4.40095,4.40095,0.01900,0.01900,0.01900,0.95084,11789.25586,11215.29785,0
4.50093,4.50093,4.50093,0.01857,0.01857,0.01857,0.95088,11789.25586,11215.77441,0
4.60090,4.60090,4.60090,0.01814,0.01814,0.01814,0.95092,11789.25586,11216.25879,0
4.70089,4.70089,4.70089,0.01778,0.01778,0.01778,0.95096,11789.25586,11216.68555,0
4.80087,4.80087,4.80087,0.01734,0.01734,0.01734,0.95100,11789.25586,11217.13867,0
4.90085,4.90085,4.90085,0.01701,0.01701,0.01701,0.95103,11789.25586,11217.54004,0
5.00083,5.00083,5.00083,0.01664,0.01664,0.01664,0.95106,11789.25586,11217.94043,0
5.10081,5.10081,5.10081,0.01628,0.01628,0.01628,0.95110,11789.25586,11218.33301,0
5.20080,5.20080,5.20080,0.01599,0.01599,0.01599,0.95113,11789.25586,11218.68457,0
5.30078,5.30078,5.30078,0.01564,0.01564,0.01564,0.95116,11789.25586,11219.04980,0
5.40077,5.40077,5.40077,0.01540,0.01540,0.01540,0.95118,11789.25586,11219.35352,0
5.50075,5.50075,5.50075,0.01496,0.01496,0.01496,0.95122,11789.25586,11219.78516,0
5.60074,5.60074,5.60074,0.01479,0.01479,0.01479,0.95124,11789.25586,11220.02734,0
5.70073,5.70073,5.70073,0.01454,0.01454,0.01454,0.95126,11789.25586,11220.31055,0
5.80071,5.80071,5.80071,0.01425,0.01425,0.01425,0.95129,11789.25586,11220.62598,0
5.90070,5.90070,5.90070,0.01396,0.01396,0.01396,0.95132,11789.25586,11220.93457,0
6.00069,6.00069,6.00069,0.01373,0.01373,0.01373,0.95134,11789.25586,11221.20605,0
6.10067,6.10067,6.10067,0.01347,0.01347,0.01347,0.95136,11789.25586,11221.48438,0
6.20066,6.20066,6.20066,0.01331,0.01331,0.01331,0.95138,11789.25586,11221.69043,0
6.30065,6.30065,6.30065,0.01302,0.01302,0.01302,0.95141,11789.25586,11221.98535,0
6.40064,6.40064,6.40064,0.01278,0.01278,0.01278,0.95143,11789.25586,11222.24707,0
6.50063,6.50063,6.50063,0.01264,0.01264,0.01264,0.95144,11789.25586,11222.44043,0
6.60062,6.60062,6.60062,0.01240,0.01240,0.01240,0.95147,11789.25586,11222.68555,0
6.70061,6.70061,6.70061,0.01220,0.01220,0.01220,0.95149,11789.25586,11222.91406,0
6.80060,6.80060,6.80060,0.01201,0.01201,0.01201,0.95150,11789.25586,11223.12305,0
6.90059,6.90059,6.90059,0.01184,0.01184,0.01184,0.95152,11789.25586,11223.33105,0
7.00058,7.00058,7.00058,0.01165,0.01165,0.01165,0.95154,11789.25586,11223.54297,0
7.10057,7.10057,7.10057,0.01139,0.01139,0.01139,0.95156,11789.25586,11223.78516,0
7.20057,7.20057,7.20057,0.01135,0.01135,0.01135,0.95157,11789.25586,11223.88770,0
7.30056,7.30056,7.30056,0.01122,0.01122,0.01122,0.95158,11789.25586,11224.04785,0
7.40054,7.40054,7.40054,0.01086,0.01086,0.01086,0.95161,11789.25586,11224.37500,0
7.50054,7.50054,7.50054,0.01083,0.01083,0.01083,0.95162,11789.25586,11224.47168,0
7.60053,7.60053,7.60053,0.01062,0.01062,0.01062,0.95163,11789.25586,11224.67773,0
7.70052,7.70052,7.70052,0.01052,0.01052,0.01052,0.95165,11789.25586,11224.80859,0
7.80052,7.80052,7.80052,0.01036,0.01036,0.01036,0.95166,11789.25586,11224.97559,0
7.90051,7.90051,7.90051,0.01026,0.01026,0.01026,0.95167,11789.25586,11225.11133,0
8.00050,8.00050,8.00050,0.00998,0.00998,0.00998,0.95169,11789.25586,11225.37305,0
8.10050,8.10050,8.10050,0.00998,0.00998,0.00998,0.95170,11789.25586,11225.42285,0
8.20049,8.20049,8.20049,0.00980,0.00980,0.00980,0.95171,11789.25586,11225.60840,0
8.30048,8.30048,8.30048,0.00964,0.00964,0.00964,0.95173,11789.25586,11225.76758,0
8.40048,8.40048,8.40048,0.00963,0.00963,0.00963,0.95173,11789.25586,11225.82812,0
8.50046,8.50046,8.50046,0.00931,0.00931,0.00931,0.95176,11789.25586,11226.10059,0
8.60047,8.60047,8.60047,0.00938,0.00938,0.00938,0.95176,11789.25586,11226.11133,0
8.70045,8.70045,8.70045,0.00910,0.00910,0.00910,0.95178,11789.25586,11226.35156,0
8.80045,8.80045,8.80045,0.00907,0.00907,0.00907,0.95178,11789.25586,11226.41406,0
8.90045,8.90045,8.90045,0.00909,0.00909,0.00909,0.95179,11789.25586,11226.45215,0
9.00044,9.00044,9.00044,0.00871,0.00871,0.00871,0.95181,11789.25586,11226.77832,0
9.10044,9.10044,9.10044,0.00878,0.00878,0.00878,0.95181,11789.25586,11226.76562,0
9.20043,9.20043,9.20043,0.00860,0.00860,0.00860,0.95183,11789.25586,11226.94531,0
9.30043,9.30043,9.30043,0.00853,0.00853,0.00853,0.95183,11789.25586,11227.02930,0
9.40042,9.40042,9.40042,0.00844,0.00844,0.00844,0.95184,11789.25586,11227.12695,0
9.50041,9.50041,9.50041,0.00831,0.00831,0.00831,0.95185,11789.25586,11227.27344,0
9.60041,9.60041,9.60041,0.00822,0.00822,0.00822,0.95186,11789.25586,11227.36719,0
9.70040,9.70040,9.70040,0.00810,0.00810,0.00810,0.95187,11789.25586,11227.49609,0
9.80040,9.80040,9.80040,0.00805,0.00805,0.00805,0.95188,11789.25586,11227.57422,0
9.90040,9.90040,9.90040,0.00796,0.00796,0.00796,0.95189,11789.25586,11227.66309,0
10.00039,10.00039,10.00039,0.00785,0.00785,0.00785,0.95190,11789.25586,11227.78711,0
10.10039,10.10039,10.10039,0.00779,0.00779,0.00779,0.95190,11789.25586,11227.86035,0
10.20038,10.20038,10.20038,0.00760,0.00760,0.00760,0.95192,11789.25586,11228.03027,0
10.30038,10.30038,10.30038,0.00760,0.00760,0.00760,0.95192,11789.25586,11228.07129,0
10.40038,10.40038,10.40038,0.00758,0.00758,0.00758,0.95193,11789.25586,11228.11816,0
10.50037,10.50037,10.50037,0.00740,0.00740,0.00740,0.95194,11789.25586,11228.27832,0
10.60037,10.60037,10.60037,0.00740,0.00740,0.00740,0.95194,11789.25586,11228.31348,0
10.70036,10.70036,10.70036,0.00721,0.00721,0.00721,0.95196,11789.25586,11228.48438,0
10.80036,10.80036,10.80036,0.00720,0.00720,0.00720,0.95196,11789.25586,11228.52441,0
10.90035,10.90035,10.90035,0.00712,0.00712,0.00712,0.95197,11789.25586,11228.59473,0
11.00035,11.00035,11.00035,0.00707,0.00707,0.00707,0.95197,11789.25586,11228.67871,0
11.10035,11.10035,11.10035,0.00695,0.00695,0.00695,0.95198,11789.25586,11228.78418,0
11.20034,11.20034,11.20034,0.00687,0.00687,0.00687,0.95199,11789.25586,11228.87793,0
11.30034,11.30034,11.30034,0.00684,0.00684,0.00684,0.95199,11789.25586,11228.92480,0
11.40034,11.40034,11.40034,0.00678,0.00678,0.00678,0.95200,11789.25586,11228.99023,0
11.50033,11.50033,11.50033,0.00667,0.00667,0.00667,0.95201,11789.25586,11229.10449,0
11.60033,11.60033,11.60033,0.00666,0.00666,0.00666,0.95201,11789.25586,11229.13574,0
11.70032,11.70032,11.70032,0.00649,0.00649,0.00649,0.95202,11789.25586,11229.27734,0
11.80032,11.80032,11.80032,0.00650,0.00650,0.00650,0.95203,11789.25586,11229.30859,0
11.90032,11.90032,11.90032,0.00650,0.00650,0.00650,0.95203,11789.25586,11229.32520,0
12.00031,12.00031,12.00031,0.00630,0.00630,0.00630,0.95204,11789.25586,11229.49512,0
12.10032,12.10032,12.10032,0.00638,0.00638,0.00638,0.95204,11789.25586,11229.45996,0
12.20031,12.20031,12.20031,0.00617,0.00617,0.00617,0.95206,11789.25586,11229.64648,0
12.30031,12.30031,12.30031,0.00617,0.00617,0.00617,0.95206,11789.25586,11229.65918,0
12.40031,12.40031,12.40031,0.00620,0.00620,0.00620,0.95206,11789.25586,11229.66699,0
12.50030,12.50030,12.50030,0.00599,0.00599,0.00599,0.95207,11789.25586,11229.84180,0
12.60030,12.60030,12.60030,0.00604,0.00604,0.00604,0.95207,11789.25586,11229.82715,0
12.70029,12.70029,12.70029,0.00592,0.00592,0.00592,0.95208,11789.25586,11229.93164,0
12.80029,12.80029,12.80029,0.00589,0.00589,0.00589,0.95208,11789.25586,11229.98633,0
12.90029,12.90029,12.90029,0.00590,0.00590,0.00590,0.95209,11789.25586,11229.99023,0
13.00029,13.00029,13.00029,0.00576,0.00576,0.00576,0.95210,11789.25586,11230.12500,0
13.10029,13.10029,13.10029,0.00573,0.00573,0.00573,0.95210,11789.25586,11230.14551,0
13.20028,13.20028,13.20028,0.00566,0.00566,0.00566,0.95211,11789.25586,11230.23828,0
13.30028,13.30028,13.30028,0.00563,0.00563,0.00563,0.95211,11789.25586,11230.27051,0
13.40028,13.40028,13.40028,0.00567,0.00567,0.00567,0.95211,11789.25586,11230.25781,0
13.50027,13.50027,13.50027,0.00544,0.00544,0.00544,0.95212,11789.25586,11230.44824,0
13.60028,13.60028,13.60028,0.00553,0.00553,0.00553,0.95212,11789.25586,11230.41113,0
13.70027,13.70027,13.70027,0.00538,0.00538,0.00538,0.95213,11789.25586,11230.52832,0
13.80027,13.80027,13.80027,0.00540,0.00540,0.00540,0.95213,11789.25586,11230.54297,0
13.90027,13.90027,13.90027,0.00539,0.00539,0.00539,0.95213,11789.25586,11230.55566,0
14.00026,14.00026,14.00026,0.00523,0.00523,0.00523,0.95214,11789.25586,11230.69434,0
14.10026,14.10026,14.10026,0.00528,0.00528,0.00528,0.95214,11789.25586,11230.67383,0
14.20026,14.20026,14.20026,0.00516,0.00516,0.00516,0.95215,11789.25586,11230.78613,0
14.30026,14.30026,14.30026,0.00518,0.00518,0.00518,0.95215,11789.25586,11230.79199,0
14.40026,14.40026,14.40026,0.00515,0.00515,0.00515,0.95216,11789.25586,11230.83105,0
14.50025,14.50025,14.50025,0.00501,0.00501,0.00501,0.95217,11789.25586,11230.93750,0
14.60025,14.60025,14.60025,0.00508,0.00508,0.00508,0.95216,11789.25586,11230.91406,0
14.70025,14.70025,14.70025,0.00495,0.00495,0.00495,0.95217,11789.25586,11231.01953,0
14.80025,14.80025,14.80025,0.00493,0.00493,0.00493,0.95218,11789.25586,11231.05371,0
14.90025,14.90025,14.90025,0.00497,0.00497,0.00497,0.95217,11789.25586,11231.03906,0
15.00024,15.00024,15.00024,0.00479,0.00479,0.00479,0.95219,11789.25586,11231.18750,0
15.10024,15.10024,15.10024,0.00489,0.00489,0.00489,0.95218,11789.25586,11231.13867,0
15.20024,15.20024,15.20024,0.00472,0.00472,0.00472,0.95219,11789.25586,11231.27539,0
15.30024,15.30024,15.30024,0.00474,0.00474,0.00474,0.95219,11789.25586,11231.27539,0
15.40024,15.40024,15.40024,0.00474,0.00474,0.00474,0.95219,11789.25586,11231.28027,0
15.50023,15.50023,15.50023,0.00463,0.00463,0.00463,0.95220,11789.25586,11231.38281,0
15.60023,15.60023,15.60023,0.00468,0.00468,0.00468,0.95220,11789.25586,11231.35645,0
15.70023,15.70023,15.70023,0.00453,0.00453,0.00453,0.95221,11789.25586,11231.48145,0
15.80023,15.80023,15.80023,0.00456,0.00456,0.00456,0.95221,11789.25586,11231.46875,0
15.90023,15.90023,15.90023,0.00467,0.00467,0.00467,0.95220,11789.25586,11231.39453,0
16.00021,16.00021,16.00021,0.00431,0.00431,0.00431,0.95223,11789.25586,11231.69629,0
16.10022,16.10022,16.10022,0.00444,0.00444,0.00444,0.95222,11789.25586,11231.61523,0
16.20022,16.20022,16.20022,0.00441,0.00441,0.00441,0.95222,11789.25586,11231.63770,0
16.30022,16.30022,16.30022,0.00444,0.00444,0.00444,0.95222,11789.25586,11231.62598,0
16.40021,16.40021,16.40021,0.00427,0.00427,0.00427,0.95224,11789.25586,11231.77539,0
16.50021,16.50021,16.50021,0.00430,0.00430,0.00430,0.95224,11789.25586,11231.76270,0
16.60021,16.60021,16.60021,0.00429,0.00429,0.00429,0.95224,11789.25586,11231.79004,0
16.70021,16.70021,16.70021,0.00423,0.00423,0.00423,0.95224,11789.25586,11231.83008,0
16.80021,16.80021,16.80021,0.00433,0.00433,0.00433,0.95224,11789.25586,11231.77539,0
16.90020,16.90020,16.90020,0.00406,0.00406,0.00406,0.95225,11789.25586,11231.99219,0
17.00020,17.00020,17.00020,0.00413,0.00413,0.00413,0.95225,11789.25586,11231.95117,0
17.10020,17.10020,17.10020,0.00411,0.00411,0.00411,0.95225,11789.25586,11231.97461,0
17.20020,17.20020,17.20020,0.00409,0.00409,0.00409,0.95226,11789.25586,11231.99707,0
17.30021,17.30021,17.30021,0.00416,0.00416,0.00416,0.95225,11789.25586,11231.95996,0
17.40020,17.40020,17.40020,0.00390,0.00390,0.00390,0.95227,11789.25586,11232.16602,0
17.50020,17.50020,17.50020,0.00399,0.00399,0.00399,0.95227,11789.25586,11232.11719,0
17.60020,17.60020,17.60020,0.00395,0.00395,0.00395,0.95227,11789.25586,11232.14941,0
17.70020,17.70020,17.70020,0.00393,0.00393,0.00393,0.95227,11789.25586,11232.16992,0
17.80020,17.80020,17.80020,0.00402,0.00402,0.00402,0.95227,11789.25586,11232.12109,0
17.90019,17.90019,17.90019,0.00374,0.00374,0.00374,0.95228,11789.25586,11232.33008,0
18.00019,18.00019,18.00019,0.00384,0.00384,0.00384,0.95228,11789.25586,11232.28613,0
18.10019,18.10019,18.10019,0.00382,0.00382,0.00382,0.95228,11789.25586,11232.30762,0
18.20019,18.20019,18.20019,0.00378,0.00378,0.00378,0.95228,11789.25586,11232.33301,0
18.30019,18.30019,18.30019,0.00387,0.00387,0.00387,0.95228,11789.25586,11232.29004,0
18.40018,18.40018,18.40018,0.00363,0.00363,0.00363,0.95230,11789.25586,11232.48145,0
18.50018,18.50018,18.50018,0.00369,0.00369,0.00369,0.95229,11789.25586,11232.44531,0
18.60018,18.60018,18.60018,0.00368,0.00368,0.00368,0.95229,11789.25586,11232.46191,0
18.70018,18.70018,18.70018,0.00364,0.00364,0.00364,0.95230,11789.25586,11232.48926,0
18.80018,18.80018,18.80018,0.00373,0.00373,0.00373,0.95229,11789.25586,11232.44629,0
18.90018,18.90018,18.90018,0.00350,0.00350,0.00350,0.95231,11789.25586,11232.62695,0
19.00018,19.00018,19.00018,0.00355,0.00355,0.00355,0.95231,11789.25586,11232.59180,0
19.10018,19.10018,19.10018,0.00354,0.00354,0.00354,0.95231,11789.25586,11232.61230,0
19.20018,19.20018,19.20018,0.00353,0.00353,0.00353,0.95231,11789.25586,11232.63086,0
19.30018,19.30018,19.30018,0.00359,0.00359,0.00359,0.95231,11789.25586,11232.59375,0
19.40017,19.40017,19.40017,0.00332,0.00332,0.00332,0.95232,11789.25586,11232.79688,0
19.50017,19.50017,19.50017,0.00353,0.00353,0.00353,0.95231,11789.25586,11232.67871,0
19.60017,19.60017,19.60017,0.00337,0.00337,0.00337,0.95232,11789.25586,11232.77637,0
19.70017,19.70017,19.70017,0.00341,0.00341,0.00341,0.95232,11789.25586,11232.77148,0
19.80017,19.80017,19.80017,0.00346,0.00346,0.00346,0.95232,11789.25586,11232.73828,0
19.90016,19.90016,19.90016,0.00321,0.00321,0.00321,0.95233,11789.25586,11232.93262,0
20.00017,20.00017,20.00017,0.00340,0.00340,0.00340,0.95232,11789.25586,11232.81738,0
20.10016,20.10016,20.10016,0.00326,0.00326,0.00326,0.95233,11789.25586,11232.90625,0
20.20016,20.20016,20.20016,0.00327,0.00327,0.00327,0.95233,11789.25586,11232.90527,0
20.30016,20.30016,20.30016,0.00331,0.00331,0.00331,0.95233,11789.25586,11232.89062,0
20.40015,20.40015,20.40015,0.00318,0.00318,0.00318,0.95234,11789.25586,11233.00293,0
20.50016,20.50016,20.50016,0.00324,0.00324,0.00324,0.95234,11789.25586,11232.96387,0
20.60015,20.60015,20.60015,0.00315,0.00315,0.00315,0.95234,11789.25586,11233.03418,0
20.70015,20.70015,20.70015,0.00316,0.00316,0.00316,0.95234,11789.25586,11233.03320,0
20.80015,20.80015,20.80015,0.00322,0.00322,0.00322,0.95234,11789.25586,11232.99609,0
20.90014,20.90014,20.90014,0.00300,0.00300,0.00300,0.95235,11789.25586,11233.17090,0
21.00015,21.00015,21.00015,0.00316,0.00316,0.00316,0.95235,11789.25586,11233.08105,0
21.10014,21.10014,21.10014,0.00304,0.00304,0.00304,0.95235,11789.25586,11233.15137,0
21.20014,21.20014,21.20014,0.00306,0.00306,0.00306,0.95235,11789.25586,11233.14746,0
21.30015,21.30015,21.30015,0.00311,0.00311,0.00311,0.95235,11789.25586,11233.12305,0
21.40013,21.40013,21.40013,0.00290,0.00290,0.00290,0.95237,11789.25586,11233.29492,0
21.50014,21.50014,21.50014,0.00305,0.00305,0.00305,0.95236,11789.25586,11233.19238,0
21.60014,21.60014,21.60014,0.00294,0.00294,0.00294,0.95236,11789.25586,11233.27539,0
21.70014,21.70014,21.70014,0.00296,0.00296,0.00296,0.95236,11789.25586,11233.26953,0
21.80014,21.80014,21.80014,0.00300,0.00300,0.00300,0.95236,11789.25586,11233.23047,0
21.90013,21.90013,21.90013,0.00281,0.00281,0.00281,0.95237,11789.25586,11233.40820,0
22.00013,22.00013,22.00013,0.00294,0.00294,0.00294,0.95237,11789.25586,11233.30273,0
22.10013,22.10013,22.10013,0.00285,0.00285,0.00285,0.95237,11789.25586,11233.38770,0
22.20013,22.20013,22.20013,0.00286,0.00286,0.00286,0.95237,11789.25586,11233.38281,0
22.30013,22.30013,22.30013,0.00290,0.00290,0.00290,0.95237,11789.25586,11233.34961,0
22.40012,22.40012,22.40012,0.00275,0.00275,0.00275,0.95238,11789.25586,11233.49121,0
22.50012,22.50012,22.50012,0.00278,0.00278,0.00278,0.95238,11789.25586,11233.45605,0
22.60012,22.60012,22.60012,0.00278,0.00278,0.00278,0.95238,11789.25586,11233.46680,0
22.70012,22.70012,22.70012,0.00277,0.00277,0.00277,0.95238,11789.25586,11233.47754,0
22.80013,22.80013,22.80013,0.00281,0.00281,0.00281,0.95238,11789.25586,11233.44434,0
22.90012,22.90012,22.90012,0.00265,0.00265,0.00265,0.95239,11789.25586,11233.59473,0
23.00012,23.00012,23.00012,0.00269,0.00269,0.00269,0.95239,11789.25586,11233.56055,0
23.10012,23.10012,23.10012,0.00268,0.00268,0.00268,0.95239,11789.25586,11233.57031,0
23.20012,23.20012,23.20012,0.00267,0.00267,0.00267,0.95239,11789.25586,11233.58203,0
23.30012,23.30012,23.30012,0.00271,0.00271,0.00271,0.95239,11789.25586,11233.54785,0
23.40012,23.40012,23.40012,0.00256,0.00256,0.00256,0.95240,11789.25586,11233.69629,0
23.50012,23.50012,23.50012,0.00260,0.00260,0.00260,0.95240,11789.25586,11233.66309,0
23.60012,23.60012,23.60012,0.00259,0.00259,0.00259,0.95240,11789.25586,11233.67285,0
23.70012,23.70012,23.70012,0.00259,0.00259,0.00259,0.95240,11789.25586,11233.68164,0
