x,y,z,vx,vy,vz,temperature,density,pressure,is_star
0.03295,0.03295,0.03295,1.08364,1.08364,1.08364,0.90714,11789.25586,10699.81348,0
0.11116,0.11116,0.11116,0.30262,0.30262,0.30262,0.94759,11789.25586,11176.92285,0
0.20716,0.20716,0.20716,0.21076,0.21076,0.21076,0.95521,11789.25586,11266.81836,0
0.30523,0.30523,0.30523,0.15695,0.15695,0.15695,0.95891,11789.25586,11310.43945,0
0.40411,0.40411,0.40411,0.12446,0.12446,0.12446,0.96106,11789.25586,11335.79883,0
0.50338,0.50338,0.50338,0.10291,0.10291,0.10291,0.96246,11789.25586,11352.32910,0
0.60287,0.60287,0.60287,0.08764,0.08764,0.08764,0.96344,11789.25586,11363.93359,0
0.70249,0.70249,0.70249,0.07624,0.07624,0.07624,0.96417,11789.25586,11372.53809,0
0.80220,0.80220,0.80220,0.06744,0.06744,0.06744,0.96473,11789.25586,11379.15039,0
0.90197,0.90197,0.90197,0.06044,0.06044,0.06044,0.96518,11789.25586,11384.39746,0
1.00178,1.00178,1.00178,0.05473,0.05473,0.05473,0.96554,11789.25586,11388.66699,0
1.10162,1.10162,1.10162,0.05000,0.05000,0.05000,0.96584,11789.25586,11392.20312,0
1.20149,1.20149,1.20149,0.04600,0.04600,0.04600,0.96609,11789.25586,11395.18262,0
1.30138,1.30138,1.30138,0.04260,0.04260,0.04260,0.96630,11789.25586,11397.71191,0
1.40129,1.40129,1.40129,0.03965,0.03965,0.03965,0.96649,11789.25586,11399.90918,0
1.50120,1.50120,1.50120,0.03706,0.03706,0.03706,0.96665,11789.25586,11401.83105,0
1.60113,1.60113,1.60113,0.03482,0.03482,0.03482,0.96680,11789.25586,11403.49805,0
1.70106,1.70106,1.70106,0.03281,0.03281,0.03281,0.96692,11789.25586,11404.99316,0
1.80101,1.80101,1.80101,0.03102,0.03102,0.03102,0.96703,11789.25586,11406.32129,0
1.90095,1.90095,1.90095,0.02937,0.02937,0.02937,0.96714,11789.25586,11407.53223,0
2.00091,2.00091,2.00091,0.02796,0.02796,0.02796,0.96723,11789.25586,11408.59863,0
2.10086,2.10086,2.10086,0.02663,0.02663,0.02663,0.96731,11789.25586,11409.57227,0
2.20082,2.20082,2.20082,0.02542,0.02542,0.02542,0.96739,11789.25586,11410.47363,0
2.30079,2.30079,2.30079,0.02431,0.02431,0.02431,0.96746,11789.25586,11411.29590,0
2.40076,2.40076,2.40076,0.02330,0.02330,0.02330,0.96752,11789.25586,11412.04199,0
2.50073,2.50073,2.50073,0.02238,0.02238,0.02238,0.96758,11789.25586,11412.73047,0
2.60070,2.60070,2.60070,0.02150,0.02150,0.02150,0.96763,11789.25586,11413.37891,0
2.70067,2.70067,2.70067,0.02071,0.02071,0.02071,0.96768,11789.25586,11413.96777,0
2.80065,2.80065,2.80065,0.01995,0.01995,0.01995,0.96773,11789.25586,11414.52344,0
2.90062,2.90062,2.90062,0.01927,0.01927,0.01927,0.96777,11789.25586,11415.02930,0
3.00060,3.00060,3.00060,0.01861,0.01861,0.01861,0.96781,11789.25586,11415.51855,0
3.10058,3.10058,3.10058,0.01800,0.01800,0.01800,0.96785,11789.25586,11415.96875,0
3.20056,3.20056,3.20056,0.01744,0.01744,0.01744,0.96789,11789.25586,11416.38672,0
3.30055,3.30055,3.30055,0.01688,0.01688,0.01688,0.96792,11789.25586,11416.79590,0
3.40053,3.40053,3.40053,0.01640,0.01640,0.01640,0.96795,11789.25586,11417.15625,0
3.50052,3.50052,3.50052,0.01590,0.01590,0.01590,0.96798,11789.25586,11417.52051,0
3.60050,3.60050,3.60050,0.01547,0.01547,0.01547,0.96801,11789.25586,11417.84570,0
3.70048,3.70048,3.70048,0.01500,0.01500,0.01500,0.96804,11789.25586,11418.18457,0
3.80047,3.80047,3.80047,0.01463,0.01463,0.01463,0.96806,11789.25586,11418.46680,0
3.90046,3.90046,3.90046,0.01426,0.01426,0.01426,0.96809,11789.25586,11418.74316,0
4.00045,4.00045,4.00045,0.01386,0.01386,0.01386,0.96811,11789.25586,11419.03809,0
4.10044,4.10044,4.10044,0.01351,0.01351,0.01351,0.96813,11789.25586,11419.29395,0
4.20043,4.20043,4.20043,0.01320,0.01320,0.01320,0.96815,11789.25586,11419.52246,0
4.30042,4.30042,4.30042,0.01288,0.01288,0.01288,0.96817,11789.25586,11419.76562,0
4.40041,4.40041,4.40041,0.01256,0.01256,0.01256,0.96819,11789.25586,11419.99512,0
4.50040,4.50040,4.50040,0.01228,0.01228,0.01228,0.96821,11789.25586,11420.20117,0
4.60039,4.60039,4.60039,0.01200,0.01200,0.01200,0.96823,11789.25586,11420.41406,0
4.70038,4.70038,4.70038,0.01174,0.01174,0.01174,0.96825,11789.25586,11420.60742,0
4.80037,4.80037,4.80037,0.01148,0.01148,0.01148,0.96826,11789.25586,11420.79688,0
4.90036,4.90036,4.90036,0.01124,0.01124,0.01124,0.96828,11789.25586,11420.98145,0
5.00036,5.00036,5.00036,0.01100,0.01100,0.01100,0.96829,11789.25586,11421.15039,0
5.10035,5.10035,5.10035,0.01077,0.01077,0.01077,0.96831,11789.25586,11421.32227,0
5.20034,5.20034,5.20034,0.01056,0.01056,0.01056,0.96832,11789.25586,11421.47656,0
5.30033,5.30033,5.30033,0.01035,0.01035,0.01035,0.96833,11789.25586,11421.63379,0
5.40033,5.40033,5.40033,0.01017,0.01017,0.01017,0.96834,11789.25586,11421.77441,0
5.50032,5.50032,5.50032,0.00991,0.00991,0.00991,0.96836,11789.25586,11421.94531,0
5.60032,5.60032,5.60032,0.00977,0.00977,0.00977,0.96837,11789.25586,11422.06641,0
5.70031,5.70031,5.70031,0.00960,0.00960,0.00960,0.96838,11789.25586,11422.19043,0
5.80031,5.80031,5.80031,0.00942,0.00942,0.00942,0.96839,11789.25586,11422.32617,0
5.90030,5.90030,5.90030,0.00923,0.00923,0.00923,0.96840,11789.25586,11422.45801,0
6.00029,6.00029,6.00029,0.00907,0.00907,0.00907,0.96841,11789.25586,11422.58105,0
6.10029,6.10029,6.10029,0.00891,0.00891,0.00891,0.96842,11789.25586,11422.69727,0
6.20028,6.20028,6.20028,0.00878,0.00878,0.00878,0.96843,11789.25586,11422.79590,0
6.30028,6.30028,6.30028,0.00861,0.00861,0.00861,0.96844,11789.25586,11422.91699,0
6.40027,6.40027,6.40027,0.00846,0.00846,0.00846,0.96845,11789.25586,11423.03125,0
6.50027,6.50027,6.50027,0.00834,0.00834,0.00834,0.96846,11789.25586,11423.12305,0
6.60027,6.60027,6.60027,0.00820,0.00820,0.00820,0.96847,11789.25586,11423.22559,0
6.70026,6.70026,6.70026,0.00806,0.00806,0.00806,0.96848,11789.25586,11423.32324,0
6.80026,6.80026,6.80026,0.00794,0.00794,0.00794,0.96848,11789.25586,11423.41504,0
6.90025,6.90025,6.90025,0.00782,0.00782,0.00782,0.96849,11789.25586,11423.51172,0
7.00025,7.00025,7.00025,0.00769,0.00769,0.00769,0.96850,11789.25586,11423.60352,0
7.10024,7.10024,7.10024,0.00755,0.00755,0.00755,0.96851,11789.25586,11423.69629,0
7.20024,7.20024,7.20024,0.00749,0.00749,0.00749,0.96851,11789.25586,11423.75684,0
7.30024,7.30024,7.30024,0.00739,0.00739,0.00739,0.96852,11789.25586,11423.82910,0
7.40023,7.40023,7.40023,0.00720,0.00720,0.00720,0.96853,11789.25586,11423.95215,0
7.50023,7.50023,7.50023,0.00714,0.00714,0.00714,0.96853,11789.25586,11424.00977,0
7.60023,7.60023,7.60023,0.00702,0.00702,0.00702,0.96854,11789.25586,11424.09180,0
7.70022,7.70022,7.70022,0.00695,0.00695,0.00695,0.96855,11789.25586,11424.15527,0
7.80022,7.80022,7.80022,0.00685,0.00685,0.00685,0.96855,11789.25586,11424.22559,0
7.90022,7.90022,7.90022,0.00676,0.00676,0.00676,0.96856,11789.25586,11424.29199,0
8.00021,8.00021,8.00021,0.00662,0.00662,0.00662,0.96857,11789.25586,11424.38574,0
8.10021,8.10021,8.10021,0.00658,0.00658,0.00658,0.96857,11789.25586,11424.42676,0
8.20021,8.20021,8.20021,0.00647,0.00647,0.00647,0.96858,11789.25586,11424.50391,0
8.30021,8.30021,8.30021,0.00638,0.00638,0.00638,0.96858,11789.25586,11424.56738,0
8.40021,8.40021,8.40021,0.00634,0.00634,0.00634,0.96858,11789.25586,11424.60840,0
8.50020,8.50020,8.50020,0.00619,0.00619,0.00619,0.96859,11789.25586,11424.70410,0
8.60020,8.60020,8.60020,0.00617,0.00617,0.00617,0.96860,11789.25586,11424.73145,0
8.70019,8.70019,8.70019,0.00603,0.00603,0.00603,0.96860,11789.25586,11424.81836,0
8.80019,8.80019,8.80019,0.00600,0.00600,0.00600,0.96861,11789.25586,11424.85547,0
8.90019,8.90019,8.90019,0.00597,0.00597,0.00597,0.96861,11789.25586,11424.88379,0
9.00019,9.00019,9.00019,0.00579,0.00579,0.00579,0.96862,11789.25586,11424.99902,0
9.10019,9.10019,9.10019,0.00579,0.00579,0.00579,0.96862,11789.25586,11425.01270,0
9.20018,9.20018,9.20018,0.00569,0.00569,0.00569,0.96863,11789.25586,11425.08691,0
9.30018,9.30018,9.30018,0.00563,0.00563,0.00563,0.96863,11789.25586,11425.12305,0
9.40018,9.40018,9.40018,0.00558,0.00558,0.00558,0.96863,11789.25586,11425.16504,0
9.50018,9.50018,9.50018,0.00549,0.00549,0.00549,0.96864,11789.25586,11425.23145,0
9.60017,9.60017,9.60017,0.00543,0.00543,0.00543,0.96864,11789.25586,11425.26660,0
9.70017,9.70017,9.70017,0.00536,0.00536,0.00536,0.96865,11789.25586,11425.32617,0
9.80017,9.80017,9.80017,0.00531,0.00531,0.00531,0.96865,11789.25586,11425.36230,0
9.90017,9.90017,9.90017,0.00526,0.00526,0.00526,0.96865,11789.25586,11425.39941,0
10.00017,10.00017,10.00017,0.00519,0.00519,0.00519,0.96866,11789.25586,11425.45508,0
10.10017,10.10017,10.10017,0.00514,0.00514,0.00514,0.96866,11789.25586,11425.48828,0
10.20016,10.20016,10.20016,0.00505,0.00505,0.00505,0.96866,11789.25586,11425.55078,0
10.30016,10.30016,10.30016,0.00502,0.00502,0.00502,0.96867,11789.25586,11425.58008,0
10.40016,10.40016,10.40016,0.00499,0.00499,0.00499,0.96867,11789.25586,11425.60547,0
10.50016,10.50016,10.50016,0.00490,0.00490,0.00490,0.96867,11789.25586,11425.66602,0
10.60016,10.60016,10.60016,0.00487,0.00487,0.00487,0.96868,11789.25586,11425.68555,0
10.70015,10.70015,10.70015,0.00478,0.00478,0.00478,0.96868,11789.25586,11425.75293,0
10.80015,10.80015,10.80015,0.00475,0.00475,0.00475,0.96868,11789.25586,11425.77734,0
10.90015,10.90015,10.90015,0.00471,0.00471,0.00471,0.96869,11789.25586,11425.80371,0
11.00015,11.00015,11.00015,0.00466,0.00466,0.00466,0.96869,11789.25586,11425.84961,0
11.10015,11.10015,11.10015,0.00460,0.00460,0.00460,0.96869,11789.25586,11425.88281,0
11.20015,11.20015,11.20015,0.00454,0.00454,0.00454,0.96870,11789.25586,11425.92969,0
11.30015,11.30015,11.30015,0.00451,0.00451,0.00451,0.96870,11789.25586,11425.95215,0
11.40014,11.40014,11.40014,0.00448,0.00448,0.00448,0.96870,11789.25586,11425.97949,0
11.50014,11.50014,11.50014,0.00441,0.00441,0.00441,0.96870,11789.25586,11426.02441,0
11.60014,11.60014,11.60014,0.00439,0.00439,0.00439,0.96871,11789.25586,11426.04688,0
11.70014,11.70014,11.70014,0.00431,0.00431,0.00431,0.96871,11789.25586,11426.09961,0
11.80014,11.80014,11.80014,0.00429,0.00429,0.00429,0.96871,11789.25586,11426.11719,0
11.90014,11.90014,11.90014,0.00428,0.00428,0.00428,0.96871,11789.25586,11426.13184,0
12.00013,12.00013,12.00013,0.00418,0.00418,0.00418,0.96872,11789.25586,11426.19336,0
12.10013,12.10013,12.10013,0.00419,0.00419,0.00419,0.96872,11789.25586,11426.19238,0
12.20013,12.20013,12.20013,0.00409,0.00409,0.00409,0.96873,11789.25586,11426.26074,0
12.30013,12.30013,12.30013,0.00408,0.00408,0.00408,0.96873,11789.25586,11426.26758,0
12.40013,12.40013,12.40013,0.00407,0.00407,0.00407,0.96873,11789.25586,11426.28027,0
12.50013,12.50013,12.50013,0.00398,0.00398,0.00398,0.96873,11789.25586,11426.34473,0
12.60013,12.60013,12.60013,0.00398,0.00398,0.00398,0.96873,11789.25586,11426.34570,0
12.70013,12.70013,12.70013,0.00392,0.00392,0.00392,0.96874,11789.25586,11426.38770,0
12.80013,12.80013,12.80013,0.00389,0.00389,0.00389,0.96874,11789.25586,11426.41504,0
12.90013,12.90013,12.90013,0.00388,0.00388,0.00388,0.96874,11789.25586,11426.42188,0
13.00012,13.00012,13.00012,0.00381,0.00381,0.00381,0.96874,11789.25586,11426.47266,0
13.10012,13.10012,13.10012,0.00379,0.00379,0.00379,0.96874,11789.25586,11426.47949,0
13.20012,13.20012,13.20012,0.00374,0.00374,0.00374,0.96875,11789.25586,11426.52734,0
13.30012,13.30012,13.30012,0.00372,0.00372,0.00372,0.96875,11789.25586,11426.53809,0
13.40012,13.40012,13.40012,0.00373,0.00373,0.00373,0.96875,11789.25586,11426.54102,0
13.50012,13.50012,13.50012,0.00362,0.00362,0.00362,0.96875,11789.25586,11426.60742,0
13.60012,13.60012,13.60012,0.00363,0.00363,0.00363,0.96875,11789.25586,11426.60352,0
13.70012,13.70012,13.70012,0.00357,0.00357,0.00357,0.96876,11789.25586,11426.64746,0
13.80012,13.80012,13.80012,0.00356,0.00356,0.00356,0.96876,11789.25586,11426.65918,0
13.90012,13.90012,13.90012,0.00355,0.00355,0.00355,0.96876,11789.25586,11426.66797,0
14.00011,14.00011,14.00011,0.00347,0.00347,0.00347,0.96876,11789.25586,11426.71777,0
14.10011,14.10011,14.10011,0.00348,0.00348,0.00348,0.96876,11789.25586,11426.71680,0
14.20011,14.20011,14.20011,0.00342,0.00342,0.00342,0.96877,11789.25586,11426.75977,0
14.30011,14.30011,14.30011,0.00341,0.00341,0.00341,0.96877,11789.25586,11426.76855,0
14.40011,14.40011,14.40011,0.00339,0.00339,0.00339,0.96877,11789.25586,11426.78516,0
14.50011,14.50011,14.50011,0.00333,0.00333,0.00333,0.96877,11789.25586,11426.82324,0
14.60011,14.60011,14.60011,0.00334,0.00334,0.00334,0.96877,11789.25586,11426.82520,0
14.70010,14.70010,14.70010,0.00328,0.00328,0.00328,0.96878,11789.25586,11426.86328,0
14.80010,14.80010,14.80010,0.00326,0.00326,0.00326,0.96878,11789.25586,11426.87598,0
14.90010,14.90010,14.90010,0.00326,0.00326,0.00326,0.96878,11789.25586,11426.87891,0
15.00010,15.00010,15.00010,0.00319,0.00319,0.00319,0.96878,11789.25586,11426.93164,0
15.10010,15.10010,15.10010,0.00320,0.00320,0.00320,0.96878,11789.25586,11426.92383,0
15.20010,15.20010,15.20010,0.00313,0.00313,0.00313,0.96879,11789.25586,11426.96973,0
15.30010,15.30010,15.30010,0.00313,0.00313,0.00313,0.96879,11789.25586,11426.97656,0
15.40010,15.40010,15.40010,0.00312,0.00312,0.00312,0.96879,11789.25586,11426.98145,0
15.50010,15.50010,15.50010,0.00307,0.00307,0.00307,0.96879,11789.25586,11427.02148,0
15.60010,15.60010,15.60010,0.00308,0.00308,0.00308,0.96879,11789.25586,11427.01758,0
15.70010,15.70010,15.70010,0.00301,0.00301,0.00301,0.96879,11789.25586,11427.05957,0
15.80010,15.80010,15.80010,0.00301,0.00301,0.00301,0.96879,11789.25586,11427.06152,0
15.90010,15.90010,15.90010,0.00305,0.00305,0.00305,0.96879,11789.25586,11427.04199,0
16.00008,16.00008,16.00008,0.00289,0.00289,0.00289,0.96880,11789.25586,11427.14648,0
16.10009,16.10009,16.10009,0.00292,0.00292,0.00292,0.96880,11789.25586,11427.12695,0
16.20009,16.20009,16.20009,0.00291,0.00291,0.00291,0.96880,11789.25586,11427.13379,0
16.30009,16.30009,16.30009,0.00291,0.00291,0.00291,0.96880,11789.25586,11427.13379,0
16.40008,16.40008,16.40008,0.00284,0.00284,0.00284,0.96880,11789.25586,11427.18945,0
16.50008,16.50008,16.50008,0.00284,0.00284,0.00284,0.96880,11789.25586,11427.18848,0
16.60008,16.60008,16.60008,0.00282,0.00282,0.00282,0.96881,11789.25586,11427.20508,0
16.70008,16.70008,16.70008,0.00281,0.00281,0.00281,0.96881,11789.25586,11427.21680,0
16.80008,16.80008,16.80008,0.00282,0.00282,0.00282,0.96881,11789.25586,11427.20703,0
16.90008,16.90008,16.90008,0.00271,0.00271,0.00271,0.96881,11789.25586,11427.27930,0
17.00008,17.00008,17.00008,0.00273,0.00273,0.00273,0.96881,11789.25586,11427.26953,0
17.10008,17.10008,17.10008,0.00272,0.00272,0.00272,0.96881,11789.25586,11427.28223,0
17.20008,17.20008,17.20008,0.00270,0.00270,0.00270,0.96881,11789.25586,11427.29199,0
17.30008,17.30008,17.30008,0.00272,0.00272,0.00272,0.96881,11789.25586,11427.28320,0
17.40008,17.40008,17.40008,0.00261,0.00261,0.00261,0.96882,11789.25586,11427.35449,0
17.50008,17.50008,17.50008,0.00263,0.00263,0.00263,0.96882,11789.25586,11427.34473,0
17.60008,17.60008,17.60008,0.00261,0.00261,0.00261,0.96882,11789.25586,11427.35449,0
17.70008,17.70008,17.70008,0.00260,0.00260,0.00260,0.96882,11789.25586,11427.36523,0
17.80008,17.80008,17.80008,0.00262,0.00262,0.00262,0.96882,11789.25586,11427.35547,0
17.90008,17.90008,17.90008,0.00251,0.00251,0.00251,0.96882,11789.25586,11427.42480,0
18.00008,18.00008,18.00008,0.00253,0.00253,0.00253,0.96882,11789.25586,11427.41699,0
18.10008,18.10008,18.10008,0.00252,0.00252,0.00252,0.96882,11789.25586,11427.42773,0
18.20008,18.20008,18.20008,0.00251,0.00251,0.00251,0.96882,11789.25586,11427.43652,0
18.30008,18.30008,18.30008,0.00252,0.00252,0.00252,0.96882,11789.25586,11427.42773,0
18.40007,18.40007,18.40007,0.00242,0.00242,0.00242,0.96883,11789.25586,11427.49512,0
18.50007,18.50007,18.50007,0.00244,0.00244,0.00244,0.96883,11789.25586,11427.48633,0
18.60007,18.60007,18.60007,0.00243,0.00243,0.00243,0.96883,11789.25586,11427.49512,0
18.70008,18.70008,18.70008,0.00242,0.00242,0.00242,0.96883,11789.25586,11427.50488,0
18.80008,18.80008,18.80008,0.00243,0.00243,0.00243,0.96883,11789.25586,11427.49512,0
18.90007,18.90007,18.90007,0.00233,0.00233,0.00233,0.96884,11789.25586,11427.55957,0
19.00007,19.00007,19.00007,0.00235,0.00235,0.00235,0.96883,11789.25586,11427.54980,0
19.10007,19.10007,19.10007,0.00234,0.00234,0.00234,0.96884,11789.25586,11427.55957,0
19.20007,19.20007,19.20007,0.00233,0.00233,0.00233,0.96884,11789.25586,11427.56836,0
19.30007,19.30007,19.30007,0.00235,0.00235,0.00235,0.96883,11789.25586,11427.55762,0
19.40007,19.40007,19.40007,0.00223,0.00223,0.00223,0.96884,11789.25586,11427.62793,0
19.50007,19.50007,19.50007,0.00230,0.00230,0.00230,0.96884,11789.25586,11427.60059,0
19.60007,19.60007,19.60007,0.00224,0.00224,0.00224,0.96884,11789.25586,11427.62598,0
19.70007,19.70007,19.70007,0.00225,0.00225,0.00225,0.96884,11789.25586,11427.62988,0
19.80007,19.80007,19.80007,0.00227,0.00227,0.00227,0.96884,11789.25586,11427.62012,0
19.90007,19.90007,19.90007,0.00215,0.00215,0.00215,0.96885,11789.25586,11427.68750,0
20.00007,20.00007,20.00007,0.00222,0.00222,0.00222,0.96884,11789.25586,11427.65918,0
20.10007,20.10007,20.10007,0.00217,0.00217,0.00217,0.96885,11789.25586,11427.68555,0
20.20007,20.20007,20.20007,0.00217,0.00217,0.00217,0.96885,11789.25586,11427.68945,0
20.30007,20.30007,20.30007,0.00218,0.00218,0.00218,0.96885,11789.25586,11427.68262,0
20.40007,20.40007,20.40007,0.00211,0.00211,0.00211,0.96885,11789.25586,11427.73340,0
20.50007,20.50007,20.50007,0.00213,0.00213,0.00213,0.96885,11789.25586,11427.72168,0
20.60007,20.60007,20.60007,0.00209,0.00209,0.00209,0.96885,11789.25586,11427.74023,0
20.70007,20.70007,20.70007,0.00209,0.00209,0.00209,0.96885,11789.25586,11427.74316,0
20.80007,20.80007,20.80007,0.00211,0.00211,0.00211,0.96885,11789.25586,11427.73340,0
20.90006,20.90006,20.90006,0.00201,0.00201,0.00201,0.96885,11789.25586,11427.79297,0
21.00007,21.00007,21.00007,0.00207,0.00207,0.00207,0.96885,11789.25586,11427.77051,0
21.10007,21.10007,21.10007,0.00202,0.00202,0.00202,0.96885,11789.25586,11427.78906,0
21.20007,21.20007,21.20007,0.00202,0.00202,0.00202,0.96885,11789.25586,11427.79199,0
21.30007,21.30007,21.30007,0.00204,0.00204,0.00204,0.96885,11789.25586,11427.79004,0
21.40006,21.40006,21.40006,0.00194,0.00194,0.00194,0.96886,11789.25586,11427.85352,0
21.50006,21.50006,21.50006,0.00200,0.00200,0.00200,0.96886,11789.25586,11427.82227,0
21.60006,21.60006,21.60006,0.00195,0.00195,0.00195,0.96886,11789.25586,11427.84863,0
21.70006,21.70006,21.70006,0.00195,0.00195,0.00195,0.96886,11789.25586,11427.84961,0
21.80006,21.80006,21.80006,0.00197,0.00197,0.00197,0.96886,11789.25586,11427.83301,0
21.90006,21.90006,21.90006,0.00187,0.00187,0.00187,0.96886,11789.25586,11427.90527,0
22.00006,22.00006,22.00006,0.00193,0.00193,0.00193,0.96886,11789.25586,11427.86719,0
22.10006,22.10006,22.10006,0.00189,0.00189,0.00189,0.96886,11789.25586,11427.90039,0
22.20006,22.20006,22.20006,0.00189,0.00189,0.00189,0.96886,11789.25586,11427.89941,0
22.30006,22.30006,22.30006,0.00191,0.00191,0.00191,0.96886,11789.25586,11427.89160,0
22.40006,22.40006,22.40006,0.00182,0.00182,0.00182,0.96887,11789.25586,11427.93945,0
22.50006,22.50006,22.50006,0.00184,0.00184,0.00184,0.96887,11789.25586,11427.92773,0
22.60006,22.60006,22.60006,0.00183,0.00183,0.00183,0.96887,11789.25586,11427.93262,0
22.70006,22.70006,22.70006,0.00183,0.00183,0.00183,0.96887,11789.25586,11427.93848,0
22.80006,22.80006,22.80006,0.00185,0.00185,0.00185,0.96887,11789.25586,11427.92773,0
22.90006,22.90006,22.90006,0.00176,0.00176,0.00176,0.96887,11789.25586,11427.98438,0
23.00006,23.00006,23.00006,0.00178,0.00178,0.00178,0.96887,11789.25586,11427.97363,0
23.10006,23.10006,23.10006,0.00177,0.00177,0.00177,0.96887,11789.25586,11427.97852,0
23.20006,23.20006,23.20006,0.00177,0.00177,0.00177,0.96887,11789.25586,11427.98340,0
23.30006,23.30006,23.30006,0.00179,0.00179,0.00179,0.96887,11789.25586,11427.97266,0
23.40005,23.40005,23.40005,0.00170,0.00170,0.00170,0.96887,11789.25586,11428.02930,0
23.50006,23.50006,23.50006,0.00172,0.00172,0.00172,0.96887,11789.25586,11428.01855,0
23.60006,23.60006,23.60006,0.00171,0.00171,0.00171,0.96887,11789.25586,11428.02344,0
23.70006,23.70006,23.70006,0.00171,0.00171,0.00171,0.96887,11789.25586,11428.02734,0
