x,y,z,vx,vy,vz,temperature,density,pressure,is_star
0.05210,0.05210,0.05210,1.46192,1.46192,1.46192,0.86648,11789.25586,10220.31055,0
0.11561,0.11561,0.11561,0.27372,0.27372,0.27372,0.93218,11789.25586,10995.15527,0
0.21060,0.21060,0.21060,0.24410,0.24410,0.24410,0.94156,11789.25586,11105.83105,0
0.30783,0.30783,0.30783,0.18671,0.18671,0.18671,0.94680,11789.25586,11167.67090,0
0.40618,0.40618,0.40618,0.14970,0.14970,0.14970,0.94992,11789.25586,11204.50195,0
0.50510,0.50510,0.50510,0.12452,0.12452,0.12452,0.95198,11789.25586,11228.78027,0
0.60434,0.60434,0.60434,0.10643,0.10643,0.10643,0.95344,11789.25586,11245.93652,0
0.70377,0.70377,0.70377,0.09281,0.09281,0.09281,0.95452,11789.25586,11258.71387,0
0.80333,0.80333,0.80333,0.08225,0.08225,0.08225,0.95536,11789.25586,11268.55957,0
0.90298,0.90298,0.90298,0.07380,0.07380,0.07380,0.95602,11789.25586,11276.39062,0
1.00270,1.00270,1.00270,0.06690,0.06690,0.06690,0.95656,11789.25586,11282.76953,0
1.10247,1.10247,1.10247,0.06116,0.06116,0.06116,0.95701,11789.25586,11288.06445,0
1.20227,1.20227,1.20227,0.05630,0.05630,0.05630,0.95739,11789.25586,11292.53027,0
1.30210,1.30210,1.30210,0.05218,0.05218,0.05218,0.95771,11789.25586,11296.31934,0
1.40195,1.40195,1.40195,0.04858,0.04858,0.04858,0.95799,11789.25586,11299.61719,0
1.50183,1.50183,1.50183,0.04541,0.04541,0.04541,0.95823,11789.25586,11302.50684,0
1.60172,1.60172,1.60172,0.04269,0.04269,0.04269,0.95845,11789.25586,11305.00781,0
1.70162,1.70162,1.70162,0.04023,0.04023,0.04023,0.95864,11789.25586,11307.25293,0
1.80153,1.80153,1.80153,0.03805,0.03805,0.03805,0.95880,11789.25586,11309.24805,0
1.90145,1.90145,1.90145,0.03602,0.03602,0.03602,0.95896,11789.25586,11311.07910,0
2.00138,2.00138,2.00138,0.03430,0.03430,0.03430,0.95909,11789.25586,11312.67188,0
2.10131,2.10131,2.10131,0.03268,0.03268,0.03268,0.95922,11789.25586,11314.14355,0
2.20125,2.20125,2.20125,0.03119,0.03119,0.03119,0.95933,11789.25586,11315.49609,0
2.30120,2.30120,2.30120,0.02984,0.02984,0.02984,0.95944,11789.25586,11316.73535,0
2.40115,2.40115,2.40115,0.02860,0.02860,0.02860,0.95953,11789.25586,11317.85938,0
2.50110,2.50110,2.50110,0.02747,0.02747,0.02747,0.95962,11789.25586,11318.89355,0
2.60106,2.60106,2.60106,0.02639,0.02639,0.02639,0.95971,11789.25586,11319.87402,0
2.70102,2.70102,2.70102,0.02542,0.02542,0.02542,0.95978,11789.25586,11320.75879,0
2.80098,2.80098,2.80098,0.02449,0.02449,0.02449,0.95985,11789.25586,11321.59570,0
2.90095,2.90095,2.90095,0.02366,0.02366,0.02366,0.95992,11789.25586,11322.36035,0
3.00092,3.00092,3.00092,0.02285,0.02285,0.02285,0.95998,11789.25586,11323.09570,0
3.10089,3.10089,3.10089,0.02211,0.02211,0.02211,0.96004,11789.25586,11323.77441,0
3.20086,3.20086,3.20086,0.02142,0.02142,0.02142,0.96009,11789.25586,11324.40137,0
3.30083,3.30083,3.30083,0.02073,0.02073,0.02073,0.96014,11789.25586,11325.02148,0
3.40081,3.40081,3.40081,0.02014,0.02014,0.02014,0.96019,11789.25586,11325.56348,0
3.50078,3.50078,3.50078,0.01953,0.01953,0.01953,0.96023,11789.25586,11326.11523,0
3.60076,3.60076,3.60076,0.01901,0.01901,0.01901,0.96028,11789.25586,11326.59961,0
3.70074,3.70074,3.70074,0.01842,0.01842,0.01842,0.96032,11789.25586,11327.12012,0
3.80072,3.80072,3.80072,0.01798,0.01798,0.01798,0.96036,11789.25586,11327.53613,0
3.90070,3.90070,3.90070,0.01752,0.01752,0.01752,0.96039,11789.25586,11327.95215,0
4.00068,4.00068,4.00068,0.01702,0.01702,0.01702,0.96043,11789.25586,11328.40039,0
4.10066,4.10066,4.10066,0.01659,0.01659,0.01659,0.96046,11789.25586,11328.78906,0
4.20065,4.20065,4.20065,0.01622,0.01622,0.01622,0.96049,11789.25586,11329.12988,0
4.30063,4.30063,4.30063,0.01582,0.01582,0.01582,0.96052,11789.25586,11329.49414,0
4.40062,4.40062,4.40062,0.01543,0.01543,0.01543,0.96055,11789.25586,11329.84180,0
4.50060,4.50060,4.50060,0.01509,0.01509,0.01509,0.96058,11789.25586,11330.15527,0
4.60059,4.60059,4.60059,0.01473,0.01473,0.01473,0.96060,11789.25586,11330.47461,0
4.70058,4.70058,4.70058,0.01443,0.01443,0.01443,0.96063,11789.25586,11330.76270,0
4.80056,4.80056,4.80056,0.01409,0.01409,0.01409,0.96065,11789.25586,11331.05371,0
4.90055,4.90055,4.90055,0.01381,0.01381,0.01381,0.96068,11789.25586,11331.32617,0
5.00054,5.00054,5.00054,0.01351,0.01351,0.01351,0.96070,11789.25586,11331.58496,0
5.10053,5.10053,5.10053,0.01323,0.01323,0.01323,0.96072,11789.25586,11331.84375,0
5.20052,5.20052,5.20052,0.01297,0.01297,0.01297,0.96074,11789.25586,11332.07617,0
5.30051,5.30051,5.30051,0.01271,0.01271,0.01271,0.96076,11789.25586,11332.31445,0
5.40050,5.40050,5.40050,0.01250,0.01250,0.01250,0.96078,11789.25586,11332.52344,0
5.50049,5.50049,5.50049,0.01217,0.01217,0.01217,0.96080,11789.25586,11332.79199,0
5.60048,5.60048,5.60048,0.01201,0.01201,0.01201,0.96082,11789.25586,11332.96387,0
5.70047,5.70047,5.70047,0.01180,0.01180,0.01180,0.96083,11789.25586,11333.15137,0
5.80046,5.80046,5.80046,0.01157,0.01157,0.01157,0.96085,11789.25586,11333.35547,0
5.90045,5.90045,5.90045,0.01134,0.01134,0.01134,0.96087,11789.25586,11333.55762,0
6.00045,6.00045,6.00045,0.01115,0.01115,0.01115,0.96088,11789.25586,11333.74121,0
6.10044,6.10044,6.10044,0.01094,0.01094,0.01094,0.96090,11789.25586,11333.92090,0
6.20043,6.20043,6.20043,0.01080,0.01080,0.01080,0.96091,11789.25586,11334.06348,0
6.30042,6.30042,6.30042,0.01058,0.01058,0.01058,0.96092,11789.25586,11334.25098,0
6.40042,6.40042,6.40042,0.01039,0.01039,0.01039,0.96094,11789.25586,11334.42188,0
6.50041,6.50041,6.50041,0.01025,0.01025,0.01025,0.96095,11789.25586,11334.55566,0
6.60040,6.60040,6.60040,0.01007,0.01007,0.01007,0.96096,11789.25586,11334.71484,0
6.70040,6.70040,6.70040,0.00990,0.00990,0.00990,0.96098,11789.25586,11334.86328,0
6.80039,6.80039,6.80039,0.00976,0.00976,0.00976,0.96099,11789.25586,11335.00000,0
6.90038,6.90038,6.90038,0.00961,0.00961,0.00961,0.96100,11789.25586,11335.14258,0
7.00038,7.00038,7.00038,0.00945,0.00945,0.00945,0.96101,11789.25586,11335.28223,0
7.10037,7.10037,7.10037,0.00927,0.00927,0.00927,0.96102,11789.25586,11335.43066,0
7.20037,7.20037,7.20037,0.00921,0.00921,0.00921,0.96103,11789.25586,11335.51172,0
7.30036,7.30036,7.30036,0.00909,0.00909,0.00909,0.96104,11789.25586,11335.61914,0
7.40035,7.40035,7.40035,0.00884,0.00884,0.00884,0.96106,11789.25586,11335.81738,0
7.50035,7.50035,7.50035,0.00878,0.00878,0.00878,0.96106,11789.25586,11335.89453,0
7.60035,7.60035,7.60035,0.00863,0.00863,0.00863,0.96107,11789.25586,11336.02344,0
7.70034,7.70034,7.70034,0.00854,0.00854,0.00854,0.96108,11789.25586,11336.11523,0
7.80034,7.80034,7.80034,0.00841,0.00841,0.00841,0.96109,11789.25586,11336.22266,0
7.90033,7.90033,7.90033,0.00832,0.00832,0.00832,0.96110,11789.25586,11336.32031,0
8.00032,8.00032,8.00032,0.00812,0.00812,0.00812,0.96111,11789.25586,11336.47266,0
8.10032,8.10032,8.10032,0.00809,0.00809,0.00809,0.96112,11789.25586,11336.52344,0
8.20032,8.20032,8.20032,0.00795,0.00795,0.00795,0.96113,11789.25586,11336.64160,0
8.30031,8.30031,8.30031,0.00783,0.00783,0.00783,0.96114,11789.25586,11336.74219,0
8.40031,8.40031,8.40031,0.00780,0.00780,0.00780,0.96114,11789.25586,11336.79395,0
8.50030,8.50030,8.50030,0.00759,0.00759,0.00759,0.96115,11789.25586,11336.95410,0
8.60030,8.60030,8.60030,0.00760,0.00760,0.00760,0.96116,11789.25586,11336.97949,0
8.70030,8.70030,8.70030,0.00740,0.00740,0.00740,0.96117,11789.25586,11337.12305,0
8.80030,8.80030,8.80030,0.00737,0.00737,0.00737,0.96117,11789.25586,11337.17285,0
8.90030,8.90030,8.90030,0.00735,0.00735,0.00735,0.96118,11789.25586,11337.20801,0
9.00028,9.00028,9.00028,0.00709,0.00709,0.00709,0.96119,11789.25586,11337.39844,0
9.10028,9.10028,9.10028,0.00712,0.00712,0.00712,0.96119,11789.25586,11337.40820,0
9.20028,9.20028,9.20028,0.00698,0.00698,0.00698,0.96120,11789.25586,11337.52051,0
9.30028,9.30028,9.30028,0.00692,0.00692,0.00692,0.96121,11789.25586,11337.57715,0
9.40027,9.40027,9.40027,0.00685,0.00685,0.00685,0.96121,11789.25586,11337.63965,0
9.50027,9.50027,9.50027,0.00675,0.00675,0.00675,0.96122,11789.25586,11337.73926,0
9.60027,9.60027,9.60027,0.00667,0.00667,0.00667,0.96123,11789.25586,11337.79688,0
9.70026,9.70026,9.70026,0.00658,0.00658,0.00658,0.96123,11789.25586,11337.88281,0
9.80026,9.80026,9.80026,0.00653,0.00653,0.00653,0.96124,11789.25586,11337.93750,0
9.90026,9.90026,9.90026,0.00646,0.00646,0.00646,0.96124,11789.25586,11337.99512,0
10.00026,10.00026,10.00026,0.00637,0.00637,0.00637,0.96125,11789.25586,11338.07715,0
10.10025,10.10025,10.10025,0.00632,0.00632,0.00632,0.96125,11789.25586,11338.12695,0
10.20025,10.20025,10.20025,0.00619,0.00619,0.00619,0.96126,11789.25586,11338.22852,0
10.30025,10.30025,10.30025,0.00617,0.00617,0.00617,0.96126,11789.25586,11338.26562,0
10.40025,10.40025,10.40025,0.00614,0.00614,0.00614,0.96127,11789.25586,11338.29980,0
10.50024,10.50024,10.50024,0.00602,0.00602,0.00602,0.96128,11789.25586,11338.39648,0
10.60024,10.60024,10.60024,0.00599,0.00599,0.00599,0.96128,11789.25586,11338.42578,0
10.70023,10.70023,10.70023,0.00586,0.00586,0.00586,0.96129,11789.25586,11338.53027,0
10.80023,10.80023,10.80023,0.00584,0.00584,0.00584,0.96129,11789.25586,11338.56348,0
10.90023,10.90023,10.90023,0.00579,0.00579,0.00579,0.96129,11789.25586,11338.60645,0
11.00023,11.00023,11.00023,0.00574,0.00574,0.00574,0.96130,11789.25586,11338.66895,0
11.10023,11.10023,11.10023,0.00564,0.00564,0.00564,0.96130,11789.25586,11338.72852,0
11.20022,11.20022,11.20022,0.00558,0.00558,0.00558,0.96131,11789.25586,11338.79395,0
11.30022,11.30022,11.30022,0.00555,0.00555,0.00555,0.96131,11789.25586,11338.82812,0
11.40022,11.40022,11.40022,0.00550,0.00550,0.00550,0.96132,11789.25586,11338.87012,0
11.50022,11.50022,11.50022,0.00542,0.00542,0.00542,0.96132,11789.25586,11338.93848,0
11.60022,11.60022,11.60022,0.00540,0.00540,0.00540,0.96132,11789.25586,11338.96973,0
11.70021,11.70021,11.70021,0.00529,0.00529,0.00529,0.96133,11789.25586,11339.05176,0
11.80021,11.80021,11.80021,0.00528,0.00528,0.00528,0.96133,11789.25586,11339.07812,0
11.90021,11.90021,11.90021,0.00526,0.00526,0.00526,0.96134,11789.25586,11339.09473,0
12.00021,12.00021,12.00021,0.00513,0.00513,0.00513,0.96134,11789.25586,11339.19531,0
12.10021,12.10021,12.10021,0.00516,0.00516,0.00516,0.96134,11789.25586,11339.18457,0
12.20020,12.20020,12.20020,0.00502,0.00502,0.00502,0.96135,11789.25586,11339.29590,0
12.30020,12.30020,12.30020,0.00501,0.00501,0.00501,0.96135,11789.25586,11339.30664,0
12.40020,12.40020,12.40020,0.00502,0.00502,0.00502,0.96135,11789.25586,11339.32129,0
12.50019,12.50019,12.50019,0.00488,0.00488,0.00488,0.96136,11789.25586,11339.42383,0
12.60019,12.60019,12.60019,0.00490,0.00490,0.00490,0.96136,11789.25586,11339.42285,0
12.70019,12.70019,12.70019,0.00482,0.00482,0.00482,0.96137,11789.25586,11339.48633,0
12.80019,12.80019,12.80019,0.00478,0.00478,0.00478,0.96137,11789.25586,11339.52539,0
12.90019,12.90019,12.90019,0.00478,0.00478,0.00478,0.96137,11789.25586,11339.53320,0
13.00019,13.00019,13.00019,0.00468,0.00468,0.00468,0.96138,11789.25586,11339.61426,0
13.10019,13.10019,13.10019,0.00466,0.00466,0.00466,0.96138,11789.25586,11339.62695,0
13.20018,13.20018,13.20018,0.00460,0.00460,0.00460,0.96139,11789.25586,11339.69238,0
13.30018,13.30018,13.30018,0.00457,0.00457,0.00457,0.96139,11789.25586,11339.71191,0
13.40018,13.40018,13.40018,0.00459,0.00459,0.00459,0.96139,11789.25586,11339.71094,0
13.50018,13.50018,13.50018,0.00444,0.00444,0.00444,0.96140,11789.25586,11339.82129,0
13.60018,13.60018,13.60018,0.00447,0.00447,0.00447,0.96140,11789.25586,11339.80859,0
13.70017,13.70017,13.70017,0.00438,0.00438,0.00438,0.96140,11789.25586,11339.87891,0
13.80017,13.80017,13.80017,0.00438,0.00438,0.00438,0.96140,11789.25586,11339.89355,0
13.90017,13.90017,13.90017,0.00437,0.00437,0.00437,0.96140,11789.25586,11339.90527,0
14.00017,14.00017,14.00017,0.00426,0.00426,0.00426,0.96141,11789.25586,11339.98535,0
14.10017,14.10017,14.10017,0.00428,0.00428,0.00428,0.96141,11789.25586,11339.98047,0
14.20017,14.20017,14.20017,0.00420,0.00420,0.00420,0.96142,11789.25586,11340.04785,0
14.30017,14.30017,14.30017,0.00420,0.00420,0.00420,0.96142,11789.25586,11340.05762,0
14.40017,14.40017,14.40017,0.00417,0.00417,0.00417,0.96142,11789.25586,11340.08398,0
14.50016,14.50016,14.50016,0.00408,0.00408,0.00408,0.96142,11789.25586,11340.14453,0
14.60016,14.60016,14.60016,0.00411,0.00411,0.00411,0.96142,11789.25586,11340.14160,0
14.70016,14.70016,14.70016,0.00403,0.00403,0.00403,0.96143,11789.25586,11340.20215,0
14.80016,14.80016,14.80016,0.00400,0.00400,0.00400,0.96143,11789.25586,11340.22461,0
14.90016,14.90016,14.90016,0.00402,0.00402,0.00402,0.96143,11789.25586,11340.22266,0
15.00016,15.00016,15.00016,0.00390,0.00390,0.00390,0.96144,11789.25586,11340.30957,0
15.10016,15.10016,15.10016,0.00395,0.00395,0.00395,0.96144,11789.25586,11340.29004,0
15.20015,15.20015,15.20015,0.00384,0.00384,0.00384,0.96144,11789.25586,11340.36719,0
15.30015,15.30015,15.30015,0.00385,0.00385,0.00385,0.96144,11789.25586,11340.37402,0
15.40015,15.40015,15.40015,0.00384,0.00384,0.00384,0.96144,11789.25586,11340.37988,0
15.50015,15.50015,15.50015,0.00377,0.00377,0.00377,0.96145,11789.25586,11340.44238,0
15.60015,15.60015,15.60015,0.00379,0.00379,0.00379,0.96145,11789.25586,11340.43164,0
15.70015,15.70015,15.70015,0.00369,0.00369,0.00369,0.96145,11789.25586,11340.50391,0
15.80015,15.80015,15.80015,0.00371,0.00371,0.00371,0.96145,11789.25586,11340.50195,0
15.90015,15.90015,15.90015,0.00377,0.00377,0.00377,0.96145,11789.25586,11340.46387,0
16.00014,16.00014,16.00014,0.00352,0.00352,0.00352,0.96147,11789.25586,11340.63867,0
16.10014,16.10014,16.10014,0.00360,0.00360,0.00360,0.96146,11789.25586,11340.59961,0
16.20014,16.20014,16.20014,0.00358,0.00358,0.00358,0.96146,11789.25586,11340.61328,0
16.30014,16.30014,16.30014,0.00359,0.00359,0.00359,0.96146,11789.25586,11340.60938,0
16.40014,16.40014,16.40014,0.00348,0.00348,0.00348,0.96147,11789.25586,11340.69922,0
16.50014,16.50014,16.50014,0.00349,0.00349,0.00349,0.96147,11789.25586,11340.69531,0
16.60014,16.60014,16.60014,0.00347,0.00347,0.00347,0.96147,11789.25586,11340.71680,0
16.70014,16.70014,16.70014,0.00344,0.00344,0.00344,0.96147,11789.25586,11340.73633,0
16.80014,16.80014,16.80014,0.00349,0.00349,0.00349,0.96147,11789.25586,11340.71582,0
16.90013,16.90013,16.90013,0.00332,0.00332,0.00332,0.96148,11789.25586,11340.83789,0
17.00013,17.00013,17.00013,0.00335,0.00335,0.00335,0.96148,11789.25586,11340.81836,0
17.10013,17.10013,17.10013,0.00334,0.00334,0.00334,0.96148,11789.25586,11340.83496,0
17.20013,17.20013,17.20013,0.00332,0.00332,0.00332,0.96148,11789.25586,11340.85156,0
17.30013,17.30013,17.30013,0.00335,0.00335,0.00335,0.96148,11789.25586,11340.83496,0
17.40012,17.40012,17.40012,0.00319,0.00319,0.00319,0.96149,11789.25586,11340.95020,0
17.50013,17.50013,17.50013,0.00323,0.00323,0.00323,0.96149,11789.25586,11340.93164,0
17.60012,17.60012,17.60012,0.00321,0.00321,0.00321,0.96149,11789.25586,11340.94727,0
17.70012,17.70012,17.70012,0.00319,0.00319,0.00319,0.96149,11789.25586,11340.96289,0
17.80013,17.80013,17.80013,0.00324,0.00324,0.00324,0.96149,11789.25586,11340.94336,0
17.90012,17.90012,17.90012,0.00307,0.00307,0.00307,0.96150,11789.25586,11341.05664,0
18.00012,18.00012,18.00012,0.00311,0.00311,0.00311,0.96150,11789.25586,11341.04004,0
18.10012,18.10012,18.10012,0.00310,0.00310,0.00310,0.96150,11789.25586,11341.05566,0
18.20012,18.20012,18.20012,0.00307,0.00307,0.00307,0.96150,11789.25586,11341.06934,0
18.30012,18.30012,18.30012,0.00311,0.00311,0.00311,0.96150,11789.25586,11341.05176,0
18.40011,18.40011,18.40011,0.00296,0.00296,0.00296,0.96151,11789.25586,11341.16113,0
18.50011,18.50011,18.50011,0.00300,0.00300,0.00300,0.96151,11789.25586,11341.14453,0
18.60011,18.60011,18.60011,0.00298,0.00298,0.00298,0.96151,11789.25586,11341.15723,0
18.70011,18.70011,18.70011,0.00297,0.00297,0.00297,0.96151,11789.25586,11341.17090,0
18.80011,18.80011,18.80011,0.00300,0.00300,0.00300,0.96151,11789.25586,11341.15430,0
18.90010,18.90010,18.90010,0.00286,0.00286,0.00286,0.96152,11789.25586,11341.25879,0
19.00010,19.00010,19.00010,0.00289,0.00289,0.00289,0.96152,11789.25586,11341.24023,0
19.10010,19.10010,19.10010,0.00288,0.00288,0.00288,0.96152,11789.25586,11341.25391,0
19.20010,19.20010,19.20010,0.00286,0.00286,0.00286,0.96152,11789.25586,11341.26758,0
19.30010,19.30010,19.30010,0.00289,0.00289,0.00289,0.96152,11789.25586,11341.24902,0
19.40010,19.40010,19.40010,0.00274,0.00274,0.00274,0.96153,11789.25586,11341.36426,0
19.50010,19.50010,19.50010,0.00283,0.00283,0.00283,0.96152,11789.25586,11341.30957,0
19.60010,19.60010,19.60010,0.00276,0.00276,0.00276,0.96153,11789.25586,11341.35645,0
19.70010,19.70010,19.70010,0.00276,0.00276,0.00276,0.96153,11789.25586,11341.35938,0
19.80010,19.80010,19.80010,0.00279,0.00279,0.00279,0.96153,11789.25586,11341.34180,0
19.90010,19.90010,19.90010,0.00264,0.00264,0.00264,0.96154,11789.25586,11341.45508,0
20.00010,20.00010,20.00010,0.00273,0.00273,0.00273,0.96153,11789.25586,11341.39844,0
20.10010,20.10010,20.10010,0.00266,0.00266,0.00266,0.96153,11789.25586,11341.44238,0
20.20010,20.20010,20.20010,0.00266,0.00266,0.00266,0.96153,11789.25586,11341.44629,0
20.30010,20.30010,20.30010,0.00267,0.00267,0.00267,0.96153,11789.25586,11341.43945,0
20.40010,20.40010,20.40010,0.00259,0.00259,0.00259,0.96154,11789.25586,11341.51074,0
20.50010,20.50010,20.50010,0.00262,0.00262,0.00262,0.96154,11789.25586,11341.49219,0
20.60010,20.60010,20.60010,0.00256,0.00256,0.00256,0.96154,11789.25586,11341.52930,0
20.70010,20.70010,20.70010,0.00257,0.00257,0.00257,0.96154,11789.25586,11341.53125,0
20.80010,20.80010,20.80010,0.00260,0.00260,0.00260,0.96154,11789.25586,11341.51074,0
20.90009,20.90009,20.90009,0.00246,0.00246,0.00246,0.96155,11789.25586,11341.61230,0
21.00010,21.00010,21.00010,0.00255,0.00255,0.00255,0.96154,11789.25586,11341.56934,0
21.10009,21.10009,21.10009,0.00248,0.00248,0.00248,0.96155,11789.25586,11341.60449,0
21.20009,21.20009,21.20009,0.00248,0.00248,0.00248,0.96155,11789.25586,11341.60547,0
21.30009,21.30009,21.30009,0.00251,0.00251,0.00251,0.96155,11789.25586,11341.59863,0
21.40009,21.40009,21.40009,0.00238,0.00238,0.00238,0.96156,11789.25586,11341.69922,0
21.50009,21.50009,21.50009,0.00246,0.00246,0.00246,0.96155,11789.25586,11341.64062,0
21.60009,21.60009,21.60009,0.00239,0.00239,0.00239,0.96156,11789.25586,11341.69043,0
21.70009,21.70009,21.70009,0.00240,0.00240,0.00240,0.96155,11789.25586,11341.68848,0
21.80009,21.80009,21.80009,0.00243,0.00243,0.00243,0.96155,11789.25586,11341.66309,0
21.90009,21.90009,21.90009,0.00229,0.00229,0.00229,0.96156,11789.25586,11341.77637,0
22.00009,22.00009,22.00009,0.00238,0.00238,0.00238,0.96156,11789.25586,11341.71289,0
22.10009,22.10009,22.10009,0.00231,0.00231,0.00231,0.96156,11789.25586,11341.76562,0
22.20009,22.20009,22.20009,0.00232,0.00232,0.00232,0.96156,11789.25586,11341.76367,0
22.30009,22.30009,22.30009,0.00235,0.00235,0.00235,0.96156,11789.25586,11341.74609,0
22.40009,22.40009,22.40009,0.00223,0.00223,0.00223,0.96157,11789.25586,11341.83008,0
22.50009,22.50009,22.50009,0.00226,0.00226,0.00226,0.96157,11789.25586,11341.80957,0
22.60009,22.60009,22.60009,0.00225,0.00225,0.00225,0.96157,11789.25586,11341.81738,0
22.70009,22.70009,22.70009,0.00225,0.00225,0.00225,0.96157,11789.25586,11341.82520,0
22.80009,22.80009,22.80009,0.00227,0.00227,0.00227,0.96156,11789.25586,11341.80566,0
22.90009,22.90009,22.90009,0.00216,0.00216,0.00216,0.96157,11789.25586,11341.89844,0
23.00009,23.00009,23.00009,0.00219,0.00219,0.00219,0.96157,11789.25586,11341.87891,0
23.10009,23.10009,23.10009,0.00218,0.00218,0.00218,0.96157,11789.25586,11341.88574,0
23.20009,23.20009,23.20009,0.00217,0.00217,0.00217,0.96157,11789.25586,11341.89355,0
23.30009,23.30009,23.30009,0.00220,0.00220,0.00220,0.96157,11789.25586,11341.87305,0
23.40008,23.40008,23.40008,0.00208,0.00208,0.00208,0.96158,11789.25586,11341.96484,0
23.50008,23.50008,23.50008,0.00211,0.00211,0.00211,0.96158,11789.25586,11341.94629,0
23.60008,23.60008,23.60008,0.00211,0.00211,0.00211,0.96158,11789.25586,11341.95410,0
23.70008,23.70008,23.70008,0.00210,0.00210,0.00210,0.96158,11789.25586,11341.95898,0
