x,y,z,vx,vy,vz,temperature,density,pressure,is_star
0.07439,0.07439,0.07439,1.97484,1.97484,1.97484,0.82327,11789.25586,9710.64258,0
0.11811,0.11811,0.11811,0.07686,0.07686,0.07686,0.92152,11789.25586,10869.45020,0
0.21393,0.21393,0.21393,0.26396,0.26396,0.26396,0.92925,11789.25586,10960.69238,0
0.31041,0.31041,0.31041,0.20884,0.20884,0.20884,0.93581,11789.25586,11037.98535,0
0.40827,0.40827,0.40827,0.16959,0.16959,0.16959,0.93983,11789.25586,11085.45508,0
0.50684,0.50684,0.50684,0.14199,0.14199,0.14199,0.94252,11789.25586,11117.15723,0
0.60583,0.60583,0.60583,0.12186,0.12186,0.12186,0.94443,11789.25586,11139.71484,0
0.70507,0.70507,0.70507,0.10653,0.10653,0.10653,0.94586,11789.25586,11156.59863,0
0.80449,0.80449,0.80449,0.09458,0.09458,0.09458,0.94697,11789.25586,11169.64648,0
0.90402,0.90402,0.90402,0.08498,0.08498,0.08498,0.94785,11789.25586,11180.04883,0
1.00364,1.00364,1.00364,0.07712,0.07712,0.07712,0.94857,11789.25586,11188.53613,0
1.10333,1.10333,1.10333,0.07055,0.07055,0.07055,0.94917,11789.25586,11195.58984,0
1.20306,1.20306,1.20306,0.06498,0.06498,0.06498,0.94967,11789.25586,11201.54883,0
1.30284,1.30284,1.30284,0.06026,0.06026,0.06026,0.95010,11789.25586,11206.60449,0
1.40264,1.40264,1.40264,0.05613,0.05613,0.05613,0.95048,11789.25586,11211.00977,0
1.50247,1.50247,1.50247,0.05248,0.05248,0.05248,0.95080,11789.25586,11214.87793,0
1.60232,1.60232,1.60232,0.04935,0.04935,0.04935,0.95109,11789.25586,11218.21777,0
1.70218,1.70218,1.70218,0.04652,0.04652,0.04652,0.95134,11789.25586,11221.22266,0
1.80207,1.80207,1.80207,0.04402,0.04402,0.04402,0.95157,11789.25586,11223.89160,0
1.90195,1.90195,1.90195,0.04166,0.04166,0.04166,0.95178,11789.25586,11226.35254,0
2.00186,2.00186,2.00186,0.03969,0.03969,0.03969,0.95196,11789.25586,11228.47559,0
2.10177,2.10177,2.10177,0.03782,0.03782,0.03782,0.95212,11789.25586,11230.45117,0
2.20169,2.20169,2.20169,0.03610,0.03610,0.03610,0.95228,11789.25586,11232.26562,0
2.30162,2.30162,2.30162,0.03454,0.03454,0.03454,0.95242,11789.25586,11233.92285,0
2.40155,2.40155,2.40155,0.03311,0.03311,0.03311,0.95255,11789.25586,11235.43164,0
2.50149,2.50149,2.50149,0.03181,0.03181,0.03181,0.95266,11789.25586,11236.81738,0
2.60143,2.60143,2.60143,0.03056,0.03056,0.03056,0.95278,11789.25586,11238.13086,0
2.70138,2.70138,2.70138,0.02944,0.02944,0.02944,0.95288,11789.25586,11239.31641,0
2.80133,2.80133,2.80133,0.02836,0.02836,0.02836,0.95297,11789.25586,11240.44531,0
2.90128,2.90128,2.90128,0.02741,0.02741,0.02741,0.95306,11789.25586,11241.46484,0
3.00124,3.00124,3.00124,0.02646,0.02646,0.02646,0.95314,11789.25586,11242.45312,0
3.10120,3.10120,3.10120,0.02560,0.02560,0.02560,0.95322,11789.25586,11243.36230,0
3.20116,3.20116,3.20116,0.02481,0.02481,0.02481,0.95329,11789.25586,11244.20605,0
3.30112,3.30112,3.30112,0.02401,0.02401,0.02401,0.95336,11789.25586,11245.03809,0
3.40109,3.40109,3.40109,0.02333,0.02333,0.02333,0.95342,11789.25586,11245.76367,0
3.50106,3.50106,3.50106,0.02262,0.02262,0.02262,0.95349,11789.25586,11246.50488,0
3.60103,3.60103,3.60103,0.02204,0.02204,0.02204,0.95354,11789.25586,11247.14941,0
3.70100,3.70100,3.70100,0.02132,0.02132,0.02132,0.95360,11789.25586,11247.86035,0
3.80097,3.80097,3.80097,0.02083,0.02083,0.02083,0.95365,11789.25586,11248.40918,0
3.90095,3.90095,3.90095,0.02030,0.02030,0.02030,0.95369,11789.25586,11248.96680,0
4.00092,4.00092,4.00092,0.01971,0.01971,0.01971,0.95375,11789.25586,11249.57227,0
4.10090,4.10090,4.10090,0.01921,0.01921,0.01921,0.95379,11789.25586,11250.09570,0
4.20088,4.20088,4.20088,0.01879,0.01879,0.01879,0.95383,11789.25586,11250.55176,0
4.30086,4.30086,4.30086,0.01833,0.01833,0.01833,0.95387,11789.25586,11251.03711,0
4.40084,4.40084,4.40084,0.01788,0.01788,0.01788,0.95391,11789.25586,11251.50781,0
4.50082,4.50082,4.50082,0.01748,0.01748,0.01748,0.95395,11789.25586,11251.92969,0
4.60080,4.60080,4.60080,0.01707,0.01707,0.01707,0.95398,11789.25586,11252.35938,0
4.70078,4.70078,4.70078,0.01673,0.01673,0.01673,0.95401,11789.25586,11252.74023,0
4.80076,4.80076,4.80076,0.01633,0.01633,0.01633,0.95405,11789.25586,11253.13770,0
4.90075,4.90075,4.90075,0.01601,0.01601,0.01601,0.95408,11789.25586,11253.49609,0
5.00073,5.00073,5.00073,0.01566,0.01566,0.01566,0.95411,11789.25586,11253.84863,0
5.10072,5.10072,5.10072,0.01533,0.01533,0.01533,0.95414,11789.25586,11254.19531,0
5.20070,5.20070,5.20070,0.01504,0.01504,0.01504,0.95416,11789.25586,11254.50781,0
5.30069,5.30069,5.30069,0.01472,0.01472,0.01472,0.95419,11789.25586,11254.82910,0
5.40068,5.40068,5.40068,0.01449,0.01449,0.01449,0.95421,11789.25586,11255.10254,0
5.50066,5.50066,5.50066,0.01408,0.01408,0.01408,0.95425,11789.25586,11255.47754,0
5.60065,5.60065,5.60065,0.01392,0.01392,0.01392,0.95426,11789.25586,11255.69824,0
5.70064,5.70064,5.70064,0.01368,0.01368,0.01368,0.95429,11789.25586,11255.94922,0
5.80063,5.80063,5.80063,0.01341,0.01341,0.01341,0.95431,11789.25586,11256.22656,0
5.90061,5.90061,5.90061,0.01314,0.01314,0.01314,0.95433,11789.25586,11256.49902,0
6.00060,6.00060,6.00060,0.01292,0.01292,0.01292,0.95435,11789.25586,11256.74219,0
6.10059,6.10059,6.10059,0.01268,0.01268,0.01268,0.95437,11789.25586,11256.98730,0
6.20059,6.20059,6.20059,0.01252,0.01252,0.01252,0.95439,11789.25586,11257.17285,0
6.30057,6.30057,6.30057,0.01226,0.01226,0.01226,0.95441,11789.25586,11257.42969,0
6.40056,6.40056,6.40056,0.01203,0.01203,0.01203,0.95443,11789.25586,11257.66113,0
6.50056,6.50056,6.50056,0.01189,0.01189,0.01189,0.95445,11789.25586,11257.83496,0
6.60055,6.60055,6.60055,0.01167,0.01167,0.01167,0.95446,11789.25586,11258.05078,0
6.70054,6.70054,6.70054,0.01148,0.01148,0.01148,0.95448,11789.25586,11258.25293,0
6.80053,6.80053,6.80053,0.01130,0.01130,0.01130,0.95450,11789.25586,11258.43652,0
6.90052,6.90052,6.90052,0.01114,0.01114,0.01114,0.95451,11789.25586,11258.62207,0
7.00051,7.00051,7.00051,0.01096,0.01096,0.01096,0.95453,11789.25586,11258.81152,0
7.10050,7.10050,7.10050,0.01073,0.01073,0.01073,0.95455,11789.25586,11259.02051,0
7.20050,7.20050,7.20050,0.01068,0.01068,0.01068,0.95455,11789.25586,11259.11719,0
7.30049,7.30049,7.30049,0.01055,0.01055,0.01055,0.95457,11789.25586,11259.26074,0
7.40048,7.40048,7.40048,0.01023,0.01023,0.01023,0.95459,11789.25586,11259.54199,0
7.50047,7.50047,7.50047,0.01018,0.01018,0.01018,0.95460,11789.25586,11259.63281,0
7.60047,7.60047,7.60047,0.01000,0.01000,0.01000,0.95461,11789.25586,11259.81250,0
7.70046,7.70046,7.70046,0.00990,0.00990,0.00990,0.95462,11789.25586,11259.93066,0
7.80046,7.80046,7.80046,0.00975,0.00975,0.00975,0.95464,11789.25586,11260.07715,0
7.90045,7.90045,7.90045,0.00965,0.00965,0.00965,0.95465,11789.25586,11260.20117,0
8.00044,8.00044,8.00044,0.00939,0.00939,0.00939,0.95467,11789.25586,11260.42578,0
8.10044,8.10044,8.10044,0.00938,0.00938,0.00938,0.95467,11789.25586,11260.47559,0
8.20043,8.20043,8.20043,0.00922,0.00922,0.00922,0.95468,11789.25586,11260.63965,0
8.30042,8.30042,8.30042,0.00908,0.00908,0.00908,0.95470,11789.25586,11260.77734,0
8.40042,8.40042,8.40042,0.00906,0.00906,0.00906,0.95470,11789.25586,11260.83496,0
8.50041,8.50041,8.50041,0.00878,0.00878,0.00878,0.95472,11789.25586,11261.06836,0
8.60041,8.60041,8.60041,0.00882,0.00882,0.00882,0.95472,11789.25586,11261.08789,0
8.70040,8.70040,8.70040,0.00857,0.00857,0.00857,0.95474,11789.25586,11261.29297,0
8.80040,8.80040,8.80040,0.00854,0.00854,0.00854,0.95474,11789.25586,11261.35156,0
8.90040,8.90040,8.90040,0.00854,0.00854,0.00854,0.95475,11789.25586,11261.39062,0
9.00038,9.00038,9.00038,0.00820,0.00820,0.00820,0.95477,11789.25586,11261.66797,0
9.10038,9.10038,9.10038,0.00826,0.00826,0.00826,0.95477,11789.25586,11261.66504,0
9.20038,9.20038,9.20038,0.00809,0.00809,0.00809,0.95478,11789.25586,11261.82031,0
9.30037,9.30037,9.30037,0.00803,0.00803,0.00803,0.95479,11789.25586,11261.89648,0
9.40037,9.40037,9.40037,0.00794,0.00794,0.00794,0.95480,11789.25586,11261.98242,0
9.50037,9.50037,9.50037,0.00782,0.00782,0.00782,0.95481,11789.25586,11262.11230,0
9.60036,9.60036,9.60036,0.00774,0.00774,0.00774,0.95482,11789.25586,11262.19531,0
9.70036,9.70036,9.70036,0.00763,0.00763,0.00763,0.95483,11789.25586,11262.30859,0
9.80035,9.80035,9.80035,0.00757,0.00757,0.00757,0.95483,11789.25586,11262.37988,0
9.90035,9.90035,9.90035,0.00749,0.00749,0.00749,0.95484,11789.25586,11262.45898,0
10.00035,10.00035,10.00035,0.00739,0.00739,0.00739,0.95485,11789.25586,11262.56836,0
10.10034,10.10034,10.10034,0.00733,0.00733,0.00733,0.95485,11789.25586,11262.63281,0
10.20033,10.20033,10.20033,0.00716,0.00716,0.00716,0.95486,11789.25586,11262.77832,0
10.30033,10.30033,10.30033,0.00715,0.00715,0.00715,0.95487,11789.25586,11262.81934,0
10.40033,10.40033,10.40033,0.00713,0.00713,0.00713,0.95487,11789.25586,11262.86230,0
10.50033,10.50033,10.50033,0.00697,0.00697,0.00697,0.95488,11789.25586,11263.00000,0
10.60032,10.60032,10.60032,0.00696,0.00696,0.00696,0.95489,11789.25586,11263.03418,0
10.70032,10.70032,10.70032,0.00679,0.00679,0.00679,0.95490,11789.25586,11263.18164,0
10.80032,10.80032,10.80032,0.00677,0.00677,0.00677,0.95490,11789.25586,11263.22070,0
10.90031,10.90031,10.90031,0.00670,0.00670,0.00670,0.95491,11789.25586,11263.28125,0
11.00031,11.00031,11.00031,0.00665,0.00665,0.00665,0.95491,11789.25586,11263.35840,0
11.10031,11.10031,11.10031,0.00654,0.00654,0.00654,0.95492,11789.25586,11263.44824,0
11.20030,11.20030,11.20030,0.00647,0.00647,0.00647,0.95493,11789.25586,11263.53320,0
11.30030,11.30030,11.30030,0.00644,0.00644,0.00644,0.95493,11789.25586,11263.57617,0
11.40030,11.40030,11.40030,0.00638,0.00638,0.00638,0.95494,11789.25586,11263.63379,0
11.50029,11.50029,11.50029,0.00628,0.00628,0.00628,0.95495,11789.25586,11263.73145,0
11.60029,11.60029,11.60029,0.00626,0.00626,0.00626,0.95495,11789.25586,11263.76367,0
11.70028,11.70028,11.70028,0.00612,0.00612,0.00612,0.95496,11789.25586,11263.88379,0
11.80029,11.80029,11.80029,0.00612,0.00612,0.00612,0.95496,11789.25586,11263.91504,0
11.90028,11.90028,11.90028,0.00611,0.00611,0.00611,0.95496,11789.25586,11263.93164,0
12.00028,12.00028,12.00028,0.00593,0.00593,0.00593,0.95497,11789.25586,11264.07617,0
12.10028,12.10028,12.10028,0.00600,0.00600,0.00600,0.95497,11789.25586,11264.04980,0
12.20027,12.20027,12.20027,0.00581,0.00581,0.00581,0.95499,11789.25586,11264.20996,0
12.30027,12.30027,12.30027,0.00581,0.00581,0.00581,0.95499,11789.25586,11264.22266,0
12.40027,12.40027,12.40027,0.00583,0.00583,0.00583,0.95499,11789.25586,11264.23340,0
12.50026,12.50026,12.50026,0.00564,0.00564,0.00564,0.95500,11789.25586,11264.38281,0
12.60026,12.60026,12.60026,0.00568,0.00568,0.00568,0.95500,11789.25586,11264.37402,0
12.70026,12.70026,12.70026,0.00558,0.00558,0.00558,0.95501,11789.25586,11264.46387,0
12.80026,12.80026,12.80026,0.00554,0.00554,0.00554,0.95501,11789.25586,11264.51367,0
12.90026,12.90026,12.90026,0.00555,0.00555,0.00555,0.95501,11789.25586,11264.52051,0
13.00025,13.00025,13.00025,0.00542,0.00542,0.00542,0.95502,11789.25586,11264.63574,0
13.10025,13.10025,13.10025,0.00540,0.00540,0.00540,0.95502,11789.25586,11264.65332,0
13.20025,13.20025,13.20025,0.00533,0.00533,0.00533,0.95503,11789.25586,11264.73730,0
13.30025,13.30025,13.30025,0.00530,0.00530,0.00530,0.95503,11789.25586,11264.76660,0
13.40025,13.40025,13.40025,0.00533,0.00533,0.00533,0.95503,11789.25586,11264.75781,0
13.50024,13.50024,13.50024,0.00513,0.00513,0.00513,0.95505,11789.25586,11264.91895,0
13.60024,13.60024,13.60024,0.00519,0.00519,0.00519,0.95504,11789.25586,11264.89160,0
13.70024,13.70024,13.70024,0.00507,0.00507,0.00507,0.95505,11789.25586,11264.99316,0
13.80024,13.80024,13.80024,0.00508,0.00508,0.00508,0.95505,11789.25586,11265.00879,0
13.90024,13.90024,13.90024,0.00507,0.00507,0.00507,0.95505,11789.25586,11265.02051,0
14.00023,14.00023,14.00023,0.00493,0.00493,0.00493,0.95507,11789.25586,11265.13867,0
14.10023,14.10023,14.10023,0.00497,0.00497,0.00497,0.95506,11789.25586,11265.12500,0
14.20023,14.20023,14.20023,0.00486,0.00486,0.00486,0.95507,11789.25586,11265.22070,0
14.30023,14.30023,14.30023,0.00487,0.00487,0.00487,0.95507,11789.25586,11265.22852,0
14.40023,14.40023,14.40023,0.00484,0.00484,0.00484,0.95508,11789.25586,11265.26367,0
14.50022,14.50022,14.50022,0.00472,0.00472,0.00472,0.95508,11789.25586,11265.35156,0
14.60022,14.60022,14.60022,0.00478,0.00478,0.00478,0.95508,11789.25586,11265.33789,0
14.70022,14.70022,14.70022,0.00466,0.00466,0.00466,0.95509,11789.25586,11265.42676,0
14.80022,14.80022,14.80022,0.00464,0.00464,0.00464,0.95509,11789.25586,11265.45801,0
14.90022,14.90022,14.90022,0.00467,0.00467,0.00467,0.95509,11789.25586,11265.44727,0
15.00021,15.00021,15.00021,0.00451,0.00451,0.00451,0.95510,11789.25586,11265.57324,0
15.10021,15.10021,15.10021,0.00459,0.00459,0.00459,0.95510,11789.25586,11265.53613,0
15.20021,15.20021,15.20021,0.00444,0.00444,0.00444,0.95511,11789.25586,11265.65039,0
15.30021,15.30021,15.30021,0.00446,0.00446,0.00446,0.95511,11789.25586,11265.65430,0
15.40021,15.40021,15.40021,0.00446,0.00446,0.00446,0.95511,11789.25586,11265.66016,0
15.50020,15.50020,15.50020,0.00436,0.00436,0.00436,0.95512,11789.25586,11265.74707,0
15.60020,15.60020,15.60020,0.00440,0.00440,0.00440,0.95512,11789.25586,11265.72852,0
15.70020,15.70020,15.70020,0.00427,0.00427,0.00427,0.95512,11789.25586,11265.83398,0
15.80020,15.80020,15.80020,0.00429,0.00429,0.00429,0.95512,11789.25586,11265.82617,0
15.90020,15.90020,15.90020,0.00438,0.00438,0.00438,0.95512,11789.25586,11265.76465,0
16.00019,16.00019,16.00019,0.00407,0.00407,0.00407,0.95514,11789.25586,11266.02246,0
16.10019,16.10019,16.10019,0.00418,0.00418,0.00418,0.95513,11789.25586,11265.95605,0
16.20019,16.20019,16.20019,0.00415,0.00415,0.00415,0.95514,11789.25586,11265.97559,0
16.30019,16.30019,16.30019,0.00418,0.00418,0.00418,0.95514,11789.25586,11265.96680,0
16.40019,16.40019,16.40019,0.00402,0.00402,0.00402,0.95515,11789.25586,11266.09570,0
16.50019,16.50019,16.50019,0.00404,0.00404,0.00404,0.95515,11789.25586,11266.08691,0
16.60019,16.60019,16.60019,0.00403,0.00403,0.00403,0.95515,11789.25586,11266.11230,0
16.70019,16.70019,16.70019,0.00398,0.00398,0.00398,0.95515,11789.25586,11266.14453,0
16.80019,16.80019,16.80019,0.00407,0.00407,0.00407,0.95515,11789.25586,11266.10352,0
16.90018,16.90018,16.90018,0.00383,0.00383,0.00383,0.95516,11789.25586,11266.28711,0
17.00018,17.00018,17.00018,0.00388,0.00388,0.00388,0.95516,11789.25586,11266.25293,0
17.10018,17.10018,17.10018,0.00387,0.00387,0.00387,0.95516,11789.25586,11266.27441,0
17.20018,17.20018,17.20018,0.00385,0.00385,0.00385,0.95516,11789.25586,11266.29590,0
17.30018,17.30018,17.30018,0.00390,0.00390,0.00390,0.95516,11789.25586,11266.26660,0
17.40017,17.40017,17.40017,0.00368,0.00368,0.00368,0.95518,11789.25586,11266.43945,0
17.50018,17.50018,17.50018,0.00376,0.00376,0.00376,0.95517,11789.25586,11266.40234,0
17.60017,17.60017,17.60017,0.00371,0.00371,0.00371,0.95517,11789.25586,11266.42871,0
17.70017,17.70017,17.70017,0.00370,0.00370,0.00370,0.95518,11789.25586,11266.44727,0
17.80018,17.80018,17.80018,0.00378,0.00378,0.00378,0.95517,11789.25586,11266.41016,0
17.90017,17.90017,17.90017,0.00353,0.00353,0.00353,0.95519,11789.25586,11266.58398,0
18.00017,18.00017,18.00017,0.00361,0.00361,0.00361,0.95518,11789.25586,11266.55078,0
18.10017,18.10017,18.10017,0.00359,0.00359,0.00359,0.95519,11789.25586,11266.57031,0
18.20017,18.20017,18.20017,0.00356,0.00356,0.00356,0.95519,11789.25586,11266.59082,0
18.30017,18.30017,18.30017,0.00363,0.00363,0.00363,0.95519,11789.25586,11266.55762,0
18.40016,18.40016,18.40016,0.00342,0.00342,0.00342,0.95520,11789.25586,11266.71875,0
18.50016,18.50016,18.50016,0.00347,0.00347,0.00347,0.95520,11789.25586,11266.69141,0
18.60016,18.60016,18.60016,0.00346,0.00346,0.00346,0.95520,11789.25586,11266.70605,0
18.70016,18.70016,18.70016,0.00343,0.00343,0.00343,0.95520,11789.25586,11266.72754,0
18.80016,18.80016,18.80016,0.00350,0.00350,0.00350,0.95520,11789.25586,11266.69531,0
18.90015,18.90015,18.90015,0.00330,0.00330,0.00330,0.95521,11789.25586,11266.84766,0
19.00015,19.00015,19.00015,0.00335,0.00335,0.00335,0.95521,11789.25586,11266.82031,0
19.10015,19.10015,19.10015,0.00333,0.00333,0.00333,0.95521,11789.25586,11266.83691,0
19.20015,19.20015,19.20015,0.00332,0.00332,0.00332,0.95521,11789.25586,11266.85547,0
19.30015,19.30015,19.30015,0.00337,0.00337,0.00337,0.95521,11789.25586,11266.82520,0
19.40014,19.40014,19.40014,0.00314,0.00314,0.00314,0.95522,11789.25586,11266.99512,0
19.50015,19.50015,19.50015,0.00331,0.00331,0.00331,0.95521,11789.25586,11266.90234,0
19.60014,19.60014,19.60014,0.00318,0.00318,0.00318,0.95522,11789.25586,11266.98047,0
19.70015,19.70015,19.70015,0.00320,0.00320,0.00320,0.95522,11789.25586,11266.97852,0
19.80015,19.80015,19.80015,0.00324,0.00324,0.00324,0.95522,11789.25586,11266.95117,0
19.90014,19.90014,19.90014,0.00304,0.00304,0.00304,0.95523,11789.25586,11267.11523,0
20.00014,20.00014,20.00014,0.00319,0.00319,0.00319,0.95522,11789.25586,11267.02441,0
20.10014,20.10014,20.10014,0.00307,0.00307,0.00307,0.95523,11789.25586,11267.09277,0
20.20014,20.20014,20.20014,0.00308,0.00308,0.00308,0.95523,11789.25586,11267.09668,0
20.30014,20.30014,20.30014,0.00311,0.00311,0.00311,0.95523,11789.25586,11267.08594,0
20.40013,20.40013,20.40013,0.00300,0.00300,0.00300,0.95524,11789.25586,11267.18164,0
20.50013,20.50013,20.50013,0.00304,0.00304,0.00304,0.95524,11789.25586,11267.15137,0
20.60013,20.60013,20.60013,0.00297,0.00297,0.00297,0.95524,11789.25586,11267.20898,0
20.70013,20.70013,20.70013,0.00298,0.00298,0.00298,0.95524,11789.25586,11267.20898,0
20.80013,20.80013,20.80013,0.00302,0.00302,0.00302,0.95524,11789.25586,11267.17969,0
20.90012,20.90012,20.90012,0.00284,0.00284,0.00284,0.95525,11789.25586,11267.32715,0
21.00013,21.00013,21.00013,0.00296,0.00296,0.00296,0.95524,11789.25586,11267.25586,0
21.10012,21.10012,21.10012,0.00287,0.00287,0.00287,0.95525,11789.25586,11267.31250,0
21.20012,21.20012,21.20012,0.00288,0.00288,0.00288,0.95525,11789.25586,11267.31055,0
21.30012,21.30012,21.30012,0.00291,0.00291,0.00291,0.95525,11789.25586,11267.29492,0
21.40012,21.40012,21.40012,0.00275,0.00275,0.00275,0.95526,11789.25586,11267.43945,0
21.50012,21.50012,21.50012,0.00286,0.00286,0.00286,0.95525,11789.25586,11267.35449,0
21.60012,21.60012,21.60012,0.00277,0.00277,0.00277,0.95526,11789.25586,11267.42480,0
21.70012,21.70012,21.70012,0.00278,0.00278,0.00278,0.95526,11789.25586,11267.42188,0
21.80012,21.80012,21.80012,0.00282,0.00282,0.00282,0.95526,11789.25586,11267.38574,0
21.90011,21.90011,21.90011,0.00265,0.00265,0.00265,0.95527,11789.25586,11267.54297,0
22.00012,22.00012,22.00012,0.00276,0.00276,0.00276,0.95526,11789.25586,11267.45117,0
22.10011,22.10011,22.10011,0.00268,0.00268,0.00268,0.95527,11789.25586,11267.52539,0
22.20012,22.20012,22.20012,0.00269,0.00269,0.00269,0.95527,11789.25586,11267.52148,0
22.30012,22.30012,22.30012,0.00273,0.00273,0.00273,0.95526,11789.25586,11267.49316,0
22.40011,22.40011,22.40011,0.00258,0.00258,0.00258,0.95528,11789.25586,11267.61621,0
22.50011,22.50011,22.50011,0.00262,0.00262,0.00262,0.95527,11789.25586,11267.58594,0
22.60011,22.60011,22.60011,0.00261,0.00261,0.00261,0.95527,11789.25586,11267.59570,0
22.70011,22.70011,22.70011,0.00260,0.00260,0.00260,0.95527,11789.25586,11267.60547,0
22.80011,22.80011,22.80011,0.00264,0.00264,0.00264,0.95527,11789.25586,11267.57715,0
22.90011,22.90011,22.90011,0.00250,0.00250,0.00250,0.95528,11789.25586,11267.70801,0
23.00011,23.00011,23.00011,0.00253,0.00253,0.00253,0.95528,11789.25586,11267.67773,0
23.10011,23.10011,23.10011,0.00252,0.00252,0.00252,0.95528,11789.25586,11267.68750,0
23.20011,23.20011,23.20011,0.00252,0.00252,0.00252,0.95528,11789.25586,11267.69824,0
23.30011,23.30011,23.30011,0.00255,0.00255,0.00255,0.95528,11789.25586,11267.66797,0
23.40011,23.40011,23.40011,0.00241,0.00241,0.00241,0.95529,11789.25586,11267.79688,0
23.50011,23.50011,23.50011,0.00245,0.00245,0.00245,0.95529,11789.25586,11267.76953,0
23.60011,23.60011,23.60011,0.00244,0.00244,0.00244,0.95529,11789.25586,11267.77832,0
23.70011,23.70011,23.70011,0.00243,0.00243,0.00243,0.95529,11789.25586,11267.78516,0
