x,y,z,vx,vy,vz,temperature,density,pressure,is_star
0.04920,0.04920,0.04920,1.40355,1.40355,1.40355,0.87240,11789.25586,10290.07617,0
0.11505,0.11505,0.11505,0.28465,0.28465,0.28465,0.93414,11789.25586,11018.36035,0
0.21011,0.21011,0.21011,0.24025,0.24025,0.24025,0.94342,11789.25586,11127.77637,0
0.30745,0.30745,0.30745,0.18298,0.18298,0.18298,0.94845,11789.25586,11187.16797,0
0.40588,0.40588,0.40588,0.14647,0.14647,0.14647,0.95144,11789.25586,11222.40430,0
0.50485,0.50485,0.50485,0.12172,0.12172,0.12172,0.95341,11789.25586,11245.59277,0
0.60412,0.60412,0.60412,0.10399,0.10399,0.10399,0.95480,11789.25586,11261.96289,0
0.70358,0.70358,0.70358,0.09065,0.09065,0.09065,0.95583,11789.25586,11274.14648,0
0.80317,0.80317,0.80317,0.08031,0.08031,0.08031,0.95662,11789.25586,11283.53125,0
0.90284,0.90284,0.90284,0.07205,0.07205,0.07205,0.95726,11789.25586,11290.99219,0
1.00257,1.00257,1.00257,0.06530,0.06530,0.06530,0.95777,11789.25586,11297.07031,0
1.10234,1.10234,1.10234,0.05969,0.05969,0.05969,0.95820,11789.25586,11302.11230,0
1.20216,1.20216,1.20216,0.05494,0.05494,0.05494,0.95856,11789.25586,11306.36426,0
1.30200,1.30200,1.30200,0.05091,0.05091,0.05091,0.95887,11789.25586,11309.97266,0
1.40186,1.40186,1.40186,0.04740,0.04740,0.04740,0.95913,11789.25586,11313.11230,0
1.50173,1.50173,1.50173,0.04431,0.04431,0.04431,0.95937,11789.25586,11315.86230,0
1.60163,1.60163,1.60163,0.04165,0.04165,0.04165,0.95957,11789.25586,11318.24414,0
1.70154,1.70154,1.70154,0.03925,0.03925,0.03925,0.95975,11789.25586,11320.38184,0
1.80145,1.80145,1.80145,0.03712,0.03712,0.03712,0.95991,11789.25586,11322.28125,0
1.90137,1.90137,1.90137,0.03514,0.03514,0.03514,0.96006,11789.25586,11324.02246,0
2.00131,2.00131,2.00131,0.03346,0.03346,0.03346,0.96019,11789.25586,11325.54004,0
2.10125,2.10125,2.10125,0.03188,0.03188,0.03188,0.96030,11789.25586,11326.93848,0
2.20119,2.20119,2.20119,0.03043,0.03043,0.03043,0.96041,11789.25586,11328.22754,0
2.30114,2.30114,2.30114,0.02911,0.02911,0.02911,0.96051,11789.25586,11329.40625,0
2.40109,2.40109,2.40109,0.02790,0.02790,0.02790,0.96060,11789.25586,11330.47656,0
2.50105,2.50105,2.50105,0.02680,0.02680,0.02680,0.96069,11789.25586,11331.45996,0
2.60101,2.60101,2.60101,0.02575,0.02575,0.02575,0.96077,11789.25586,11332.39160,0
2.70097,2.70097,2.70097,0.02480,0.02480,0.02480,0.96084,11789.25586,11333.23535,0
2.80093,2.80093,2.80093,0.02389,0.02389,0.02389,0.96091,11789.25586,11334.03125,0
2.90090,2.90090,2.90090,0.02308,0.02308,0.02308,0.96097,11789.25586,11334.75879,0
3.00087,3.00087,3.00087,0.02229,0.02229,0.02229,0.96103,11789.25586,11335.45898,0
3.10084,3.10084,3.10084,0.02156,0.02156,0.02156,0.96108,11789.25586,11336.10449,0
3.20082,3.20082,3.20082,0.02089,0.02089,0.02089,0.96113,11789.25586,11336.70215,0
3.30079,3.30079,3.30079,0.02022,0.02022,0.02022,0.96118,11789.25586,11337.29102,0
3.40077,3.40077,3.40077,0.01964,0.01964,0.01964,0.96123,11789.25586,11337.80664,0
3.50074,3.50074,3.50074,0.01905,0.01905,0.01905,0.96127,11789.25586,11338.33105,0
3.60072,3.60072,3.60072,0.01854,0.01854,0.01854,0.96131,11789.25586,11338.79297,0
3.70070,3.70070,3.70070,0.01797,0.01797,0.01797,0.96135,11789.25586,11339.28711,0
3.80069,3.80069,3.80069,0.01753,0.01753,0.01753,0.96138,11789.25586,11339.68359,0
3.90067,3.90067,3.90067,0.01709,0.01709,0.01709,0.96142,11789.25586,11340.07910,0
4.00065,4.00065,4.00065,0.01660,0.01660,0.01660,0.96145,11789.25586,11340.50586,0
4.10063,4.10063,4.10063,0.01618,0.01618,0.01618,0.96149,11789.25586,11340.87500,0
4.20062,4.20062,4.20062,0.01582,0.01582,0.01582,0.96151,11789.25586,11341.19922,0
4.30060,4.30060,4.30060,0.01543,0.01543,0.01543,0.96154,11789.25586,11341.54688,0
4.40059,4.40059,4.40059,0.01505,0.01505,0.01505,0.96157,11789.25586,11341.87695,0
4.50057,4.50057,4.50057,0.01471,0.01471,0.01471,0.96160,11789.25586,11342.17578,0
4.60056,4.60056,4.60056,0.01437,0.01437,0.01437,0.96162,11789.25586,11342.47949,0
4.70055,4.70055,4.70055,0.01408,0.01408,0.01408,0.96165,11789.25586,11342.75293,0
4.80054,4.80054,4.80054,0.01375,0.01375,0.01375,0.96167,11789.25586,11343.03027,0
4.90053,4.90053,4.90053,0.01347,0.01347,0.01347,0.96169,11789.25586,11343.29004,0
5.00051,5.00051,5.00051,0.01318,0.01318,0.01318,0.96171,11789.25586,11343.53613,0
5.10050,5.10050,5.10050,0.01291,0.01291,0.01291,0.96173,11789.25586,11343.78223,0
5.20049,5.20049,5.20049,0.01265,0.01265,0.01265,0.96175,11789.25586,11344.00293,0
5.30048,5.30048,5.30048,0.01240,0.01240,0.01240,0.96177,11789.25586,11344.22852,0
5.40048,5.40048,5.40048,0.01219,0.01219,0.01219,0.96179,11789.25586,11344.42871,0
5.50046,5.50046,5.50046,0.01187,0.01187,0.01187,0.96181,11789.25586,11344.68262,0
5.60046,5.60046,5.60046,0.01171,0.01171,0.01171,0.96182,11789.25586,11344.84863,0
5.70045,5.70045,5.70045,0.01151,0.01151,0.01151,0.96184,11789.25586,11345.02539,0
5.80044,5.80044,5.80044,0.01128,0.01128,0.01128,0.96185,11789.25586,11345.22070,0
5.90043,5.90043,5.90043,0.01106,0.01106,0.01106,0.96187,11789.25586,11345.41211,0
6.00042,6.00042,6.00042,0.01087,0.01087,0.01087,0.96189,11789.25586,11345.58691,0
6.10042,6.10042,6.10042,0.01067,0.01067,0.01067,0.96190,11789.25586,11345.75684,0
6.20041,6.20041,6.20041,0.01053,0.01053,0.01053,0.96191,11789.25586,11345.89453,0
6.30040,6.30040,6.30040,0.01032,0.01032,0.01032,0.96193,11789.25586,11346.07324,0
6.40039,6.40039,6.40039,0.01013,0.01013,0.01013,0.96194,11789.25586,11346.23340,0
6.50039,6.50039,6.50039,0.01000,0.01000,0.01000,0.96195,11789.25586,11346.36230,0
6.60038,6.60038,6.60038,0.00982,0.00982,0.00982,0.96196,11789.25586,11346.51270,0
6.70038,6.70038,6.70038,0.00966,0.00966,0.00966,0.96198,11789.25586,11346.65430,0
6.80037,6.80037,6.80037,0.00952,0.00952,0.00952,0.96199,11789.25586,11346.78418,0
6.90037,6.90037,6.90037,0.00937,0.00937,0.00937,0.96200,11789.25586,11346.91992,0
7.00036,7.00036,7.00036,0.00922,0.00922,0.00922,0.96201,11789.25586,11347.05273,0
7.10035,7.10035,7.10035,0.00904,0.00904,0.00904,0.96202,11789.25586,11347.19336,0
7.20035,7.20035,7.20035,0.00898,0.00898,0.00898,0.96203,11789.25586,11347.27051,0
7.30035,7.30035,7.30035,0.00887,0.00887,0.00887,0.96204,11789.25586,11347.37500,0
7.40034,7.40034,7.40034,0.00862,0.00862,0.00862,0.96205,11789.25586,11347.56152,0
7.50033,7.50033,7.50033,0.00856,0.00856,0.00856,0.96206,11789.25586,11347.63672,0
7.60033,7.60033,7.60033,0.00842,0.00842,0.00842,0.96207,11789.25586,11347.75879,0
7.70032,7.70032,7.70032,0.00833,0.00833,0.00833,0.96208,11789.25586,11347.84668,0
7.80032,7.80032,7.80032,0.00821,0.00821,0.00821,0.96209,11789.25586,11347.94824,0
7.90032,7.90032,7.90032,0.00811,0.00811,0.00811,0.96209,11789.25586,11348.04102,0
8.00031,8.00031,8.00031,0.00792,0.00792,0.00792,0.96211,11789.25586,11348.18457,0
8.10031,8.10031,8.10031,0.00789,0.00789,0.00789,0.96211,11789.25586,11348.23340,0
8.20030,8.20030,8.20030,0.00776,0.00776,0.00776,0.96212,11789.25586,11348.34668,0
8.30030,8.30030,8.30030,0.00764,0.00764,0.00764,0.96213,11789.25586,11348.44141,0
8.40030,8.40030,8.40030,0.00761,0.00761,0.00761,0.96213,11789.25586,11348.49121,0
8.50029,8.50029,8.50029,0.00740,0.00740,0.00740,0.96214,11789.25586,11348.64160,0
8.60029,8.60029,8.60029,0.00741,0.00741,0.00741,0.96215,11789.25586,11348.66797,0
8.70028,8.70028,8.70028,0.00722,0.00722,0.00722,0.96216,11789.25586,11348.80273,0
8.80028,8.80028,8.80028,0.00719,0.00719,0.00719,0.96216,11789.25586,11348.85156,0
8.90028,8.90028,8.90028,0.00717,0.00717,0.00717,0.96217,11789.25586,11348.88574,0
9.00027,9.00027,9.00027,0.00692,0.00692,0.00692,0.96218,11789.25586,11349.06445,0
9.10027,9.10027,9.10027,0.00694,0.00694,0.00694,0.96218,11789.25586,11349.07617,0
9.20027,9.20027,9.20027,0.00681,0.00681,0.00681,0.96219,11789.25586,11349.18262,0
9.30026,9.30026,9.30026,0.00675,0.00675,0.00675,0.96219,11789.25586,11349.23730,0
9.40026,9.40026,9.40026,0.00668,0.00668,0.00668,0.96220,11789.25586,11349.29590,0
9.50026,9.50026,9.50026,0.00658,0.00658,0.00658,0.96221,11789.25586,11349.39062,0
9.60025,9.60025,9.60025,0.00651,0.00651,0.00651,0.96221,11789.25586,11349.44531,0
9.70025,9.70025,9.70025,0.00642,0.00642,0.00642,0.96222,11789.25586,11349.52734,0
9.80025,9.80025,9.80025,0.00637,0.00637,0.00637,0.96222,11789.25586,11349.57812,0
9.90025,9.90025,9.90025,0.00630,0.00630,0.00630,0.96223,11789.25586,11349.63379,0
10.00024,10.00024,10.00024,0.00622,0.00622,0.00622,0.96224,11789.25586,11349.71191,0
10.10024,10.10024,10.10024,0.00617,0.00617,0.00617,0.96224,11789.25586,11349.75879,0
10.20023,10.20023,10.20023,0.00604,0.00604,0.00604,0.96225,11789.25586,11349.85547,0
10.30023,10.30023,10.30023,0.00602,0.00602,0.00602,0.96225,11789.25586,11349.89160,0
10.40023,10.40023,10.40023,0.00599,0.00599,0.00599,0.96225,11789.25586,11349.92383,0
10.50023,10.50023,10.50023,0.00587,0.00587,0.00587,0.96226,11789.25586,11350.01465,0
10.60023,10.60023,10.60023,0.00584,0.00584,0.00584,0.96226,11789.25586,11350.04297,0
10.70022,10.70022,10.70022,0.00572,0.00572,0.00572,0.96227,11789.25586,11350.14258,0
10.80022,10.80022,10.80022,0.00569,0.00569,0.00569,0.96227,11789.25586,11350.17480,0
10.90022,10.90022,10.90022,0.00564,0.00564,0.00564,0.96228,11789.25586,11350.21484,0
11.00022,11.00022,11.00022,0.00559,0.00559,0.00559,0.96228,11789.25586,11350.27539,0
11.10021,11.10021,11.10021,0.00551,0.00551,0.00551,0.96229,11789.25586,11350.33105,0
11.20021,11.20021,11.20021,0.00545,0.00545,0.00545,0.96229,11789.25586,11350.39355,0
11.30021,11.30021,11.30021,0.00541,0.00541,0.00541,0.96230,11789.25586,11350.42676,0
11.40021,11.40021,11.40021,0.00536,0.00536,0.00536,0.96230,11789.25586,11350.46777,0
11.50021,11.50021,11.50021,0.00529,0.00529,0.00529,0.96230,11789.25586,11350.53125,0
11.60020,11.60020,11.60020,0.00526,0.00526,0.00526,0.96231,11789.25586,11350.56055,0
11.70020,11.70020,11.70020,0.00516,0.00516,0.00516,0.96231,11789.25586,11350.63965,0
11.80020,11.80020,11.80020,0.00514,0.00514,0.00514,0.96232,11789.25586,11350.66406,0
11.90020,11.90020,11.90020,0.00513,0.00513,0.00513,0.96232,11789.25586,11350.68066,0
12.00020,12.00020,12.00020,0.00500,0.00500,0.00500,0.96233,11789.25586,11350.77637,0
12.10020,12.10020,12.10020,0.00503,0.00503,0.00503,0.96232,11789.25586,11350.76660,0
12.20019,12.20019,12.20019,0.00490,0.00490,0.00490,0.96233,11789.25586,11350.87109,0
12.30019,12.30019,12.30019,0.00489,0.00489,0.00489,0.96233,11789.25586,11350.88184,0
12.40019,12.40019,12.40019,0.00489,0.00489,0.00489,0.96234,11789.25586,11350.89648,0
12.50019,12.50019,12.50019,0.00476,0.00476,0.00476,0.96234,11789.25586,11350.99316,0
12.60019,12.60019,12.60019,0.00477,0.00477,0.00477,0.96234,11789.25586,11350.99121,0
12.70018,12.70018,12.70018,0.00470,0.00470,0.00470,0.96235,11789.25586,11351.05273,0
12.80018,12.80018,12.80018,0.00466,0.00466,0.00466,0.96235,11789.25586,11351.08984,0
12.90018,12.90018,12.90018,0.00466,0.00466,0.00466,0.96235,11789.25586,11351.09766,0
13.00018,13.00018,13.00018,0.00456,0.00456,0.00456,0.96236,11789.25586,11351.17383,0
13.10018,13.10018,13.10018,0.00454,0.00454,0.00454,0.96236,11789.25586,11351.18555,0
13.20018,13.20018,13.20018,0.00449,0.00449,0.00449,0.96237,11789.25586,11351.24902,0
13.30017,13.30017,13.30017,0.00446,0.00446,0.00446,0.96237,11789.25586,11351.26758,0
13.40018,13.40018,13.40018,0.00447,0.00447,0.00447,0.96237,11789.25586,11351.26660,0
13.50017,13.50017,13.50017,0.00433,0.00433,0.00433,0.96238,11789.25586,11351.37012,0
13.60017,13.60017,13.60017,0.00436,0.00436,0.00436,0.96237,11789.25586,11351.35938,0
13.70016,13.70016,13.70016,0.00427,0.00427,0.00427,0.96238,11789.25586,11351.42480,0
13.80017,13.80017,13.80017,0.00427,0.00427,0.00427,0.96238,11789.25586,11351.44043,0
13.90016,13.90016,13.90016,0.00426,0.00426,0.00426,0.96238,11789.25586,11351.45020,0
14.00016,14.00016,14.00016,0.00416,0.00416,0.00416,0.96239,11789.25586,11351.52734,0
14.10016,14.10016,14.10016,0.00417,0.00417,0.00417,0.96239,11789.25586,11351.52246,0
14.20016,14.20016,14.20016,0.00409,0.00409,0.00409,0.96239,11789.25586,11351.58691,0
14.30016,14.30016,14.30016,0.00409,0.00409,0.00409,0.96239,11789.25586,11351.59668,0
14.40016,14.40016,14.40016,0.00407,0.00407,0.00407,0.96240,11789.25586,11351.62109,0
14.50016,14.50016,14.50016,0.00399,0.00399,0.00399,0.96240,11789.25586,11351.67871,0
14.60016,14.60016,14.60016,0.00401,0.00401,0.00401,0.96240,11789.25586,11351.67676,0
14.70015,14.70015,14.70015,0.00393,0.00393,0.00393,0.96241,11789.25586,11351.73438,0
14.80015,14.80015,14.80015,0.00390,0.00390,0.00390,0.96241,11789.25586,11351.75488,0
14.90015,14.90015,14.90015,0.00392,0.00392,0.00392,0.96241,11789.25586,11351.75293,0
15.00015,15.00015,15.00015,0.00381,0.00381,0.00381,0.96242,11789.25586,11351.83594,0
15.10015,15.10015,15.10015,0.00385,0.00385,0.00385,0.96241,11789.25586,11351.81836,0
15.20015,15.20015,15.20015,0.00375,0.00375,0.00375,0.96242,11789.25586,11351.89160,0
15.30015,15.30015,15.30015,0.00375,0.00375,0.00375,0.96242,11789.25586,11351.89746,0
15.40015,15.40015,15.40015,0.00375,0.00375,0.00375,0.96242,11789.25586,11351.90332,0
15.50014,15.50014,15.50014,0.00367,0.00367,0.00367,0.96243,11789.25586,11351.96191,0
15.60014,15.60014,15.60014,0.00370,0.00370,0.00370,0.96243,11789.25586,11351.95215,0
15.70014,15.70014,15.70014,0.00360,0.00360,0.00360,0.96243,11789.25586,11352.02051,0
15.80014,15.80014,15.80014,0.00361,0.00361,0.00361,0.96243,11789.25586,11352.01855,0
15.90014,15.90014,15.90014,0.00368,0.00368,0.00368,0.96243,11789.25586,11351.98340,0
16.00013,16.00013,16.00013,0.00344,0.00344,0.00344,0.96244,11789.25586,11352.14844,0
16.10014,16.10014,16.10014,0.00351,0.00351,0.00351,0.96244,11789.25586,11352.11133,0
16.20014,16.20014,16.20014,0.00349,0.00349,0.00349,0.96244,11789.25586,11352.12402,0
16.30014,16.30014,16.30014,0.00350,0.00350,0.00350,0.96244,11789.25586,11352.12207,0
16.40013,16.40013,16.40013,0.00339,0.00339,0.00339,0.96245,11789.25586,11352.20605,0
16.50013,16.50013,16.50013,0.00340,0.00340,0.00340,0.96245,11789.25586,11352.20215,0
16.60013,16.60013,16.60013,0.00339,0.00339,0.00339,0.96245,11789.25586,11352.22363,0
16.70013,16.70013,16.70013,0.00336,0.00336,0.00336,0.96245,11789.25586,11352.24219,0
16.80013,16.80013,16.80013,0.00340,0.00340,0.00340,0.96245,11789.25586,11352.22363,0
16.90012,16.90012,16.90012,0.00324,0.00324,0.00324,0.96246,11789.25586,11352.33691,0
17.00012,17.00012,17.00012,0.00327,0.00327,0.00327,0.96246,11789.25586,11352.31934,0
17.10012,17.10012,17.10012,0.00325,0.00325,0.00325,0.96246,11789.25586,11352.33594,0
17.20012,17.20012,17.20012,0.00324,0.00324,0.00324,0.96246,11789.25586,11352.35156,0
17.30013,17.30013,17.30013,0.00327,0.00327,0.00327,0.96246,11789.25586,11352.33594,0
17.40012,17.40012,17.40012,0.00311,0.00311,0.00311,0.96247,11789.25586,11352.44434,0
17.50012,17.50012,17.50012,0.00315,0.00315,0.00315,0.96247,11789.25586,11352.42676,0
17.60012,17.60012,17.60012,0.00313,0.00313,0.00313,0.96247,11789.25586,11352.44238,0
17.70012,17.70012,17.70012,0.00311,0.00311,0.00311,0.96247,11789.25586,11352.45703,0
17.80012,17.80012,17.80012,0.00315,0.00315,0.00315,0.96247,11789.25586,11352.43945,0
17.90011,17.90011,17.90011,0.00300,0.00300,0.00300,0.96248,11789.25586,11352.54492,0
18.00011,18.00011,18.00011,0.00303,0.00303,0.00303,0.96247,11789.25586,11352.53027,0
18.10011,18.10011,18.10011,0.00302,0.00302,0.00302,0.96248,11789.25586,11352.54492,0
18.20011,18.20011,18.20011,0.00300,0.00300,0.00300,0.96248,11789.25586,11352.55762,0
18.30011,18.30011,18.30011,0.00303,0.00303,0.00303,0.96248,11789.25586,11352.54297,0
18.40010,18.40010,18.40010,0.00289,0.00289,0.00289,0.96248,11789.25586,11352.64551,0
18.50010,18.50010,18.50010,0.00292,0.00292,0.00292,0.96248,11789.25586,11352.62988,0
18.60010,18.60010,18.60010,0.00291,0.00291,0.00291,0.96248,11789.25586,11352.64160,0
18.70010,18.70010,18.70010,0.00289,0.00289,0.00289,0.96248,11789.25586,11352.65527,0
18.80010,18.80010,18.80010,0.00292,0.00292,0.00292,0.96248,11789.25586,11352.63965,0
18.90010,18.90010,18.90010,0.00279,0.00279,0.00279,0.96249,11789.25586,11352.73730,0
19.00010,19.00010,19.00010,0.00282,0.00282,0.00282,0.96249,11789.25586,11352.72070,0
19.10010,19.10010,19.10010,0.00280,0.00280,0.00280,0.96249,11789.25586,11352.73340,0
19.20010,19.20010,19.20010,0.00279,0.00279,0.00279,0.96249,11789.25586,11352.74609,0
19.30010,19.30010,19.30010,0.00282,0.00282,0.00282,0.96249,11789.25586,11352.72852,0
19.40009,19.40009,19.40009,0.00267,0.00267,0.00267,0.96250,11789.25586,11352.83789,0
19.50010,19.50010,19.50010,0.00276,0.00276,0.00276,0.96250,11789.25586,11352.78613,0
19.60010,19.60010,19.60010,0.00269,0.00269,0.00269,0.96250,11789.25586,11352.83105,0
19.70010,19.70010,19.70010,0.00269,0.00269,0.00269,0.96250,11789.25586,11352.83398,0
19.80010,19.80010,19.80010,0.00272,0.00272,0.00272,0.96250,11789.25586,11352.81738,0
19.90009,19.90009,19.90009,0.00258,0.00258,0.00258,0.96251,11789.25586,11352.92480,0
20.00010,20.00010,20.00010,0.00266,0.00266,0.00266,0.96250,11789.25586,11352.87109,0
20.10009,20.10009,20.10009,0.00259,0.00259,0.00259,0.96251,11789.25586,11352.91309,0
20.20009,20.20009,20.20009,0.00260,0.00260,0.00260,0.96251,11789.25586,11352.91699,0
20.30009,20.30009,20.30009,0.00261,0.00261,0.00261,0.96251,11789.25586,11352.91016,0
20.40009,20.40009,20.40009,0.00253,0.00253,0.00253,0.96251,11789.25586,11352.97852,0
20.50009,20.50009,20.50009,0.00256,0.00256,0.00256,0.96251,11789.25586,11352.96094,0
20.60009,20.60009,20.60009,0.00250,0.00250,0.00250,0.96251,11789.25586,11352.99609,0
20.70009,20.70009,20.70009,0.00251,0.00251,0.00251,0.96251,11789.25586,11352.99805,0
20.80009,20.80009,20.80009,0.00253,0.00253,0.00253,0.96251,11789.25586,11352.97852,0
20.90009,20.90009,20.90009,0.00240,0.00240,0.00240,0.96252,11789.25586,11353.07520,0
21.00009,21.00009,21.00009,0.00248,0.00248,0.00248,0.96252,11789.25586,11353.03516,0
21.10009,21.10009,21.10009,0.00242,0.00242,0.00242,0.96252,11789.25586,11353.06738,0
21.20009,21.20009,21.20009,0.00242,0.00242,0.00242,0.96252,11789.25586,11353.06836,0
21.30009,21.30009,21.30009,0.00245,0.00245,0.00245,0.96252,11789.25586,11353.06348,0
21.40009,21.40009,21.40009,0.00232,0.00232,0.00232,0.96253,11789.25586,11353.15820,0
21.50009,21.50009,21.50009,0.00240,0.00240,0.00240,0.96252,11789.25586,11353.10352,0
21.60009,21.60009,21.60009,0.00234,0.00234,0.00234,0.96253,11789.25586,11353.14941,0
21.70009,21.70009,21.70009,0.00234,0.00234,0.00234,0.96253,11789.25586,11353.14941,0
21.80009,21.80009,21.80009,0.00237,0.00237,0.00237,0.96252,11789.25586,11353.12402,0
21.90009,21.90009,21.90009,0.00224,0.00224,0.00224,0.96253,11789.25586,11353.23145,0
22.00009,22.00009,22.00009,0.00232,0.00232,0.00232,0.96253,11789.25586,11353.17188,0
22.10009,22.10009,22.10009,0.00226,0.00226,0.00226,0.96253,11789.25586,11353.22168,0
22.20009,22.20009,22.20009,0.00226,0.00226,0.00226,0.96253,11789.25586,11353.21973,0
22.30009,22.30009,22.30009,0.00229,0.00229,0.00229,0.96253,11789.25586,11353.20410,0
22.40008,22.40008,22.40008,0.00218,0.00218,0.00218,0.96254,11789.25586,11353.28223,0
22.50008,22.50008,22.50008,0.00220,0.00220,0.00220,0.96254,11789.25586,11353.26270,0
22.60008,22.60008,22.60008,0.00220,0.00220,0.00220,0.96254,11789.25586,11353.27051,0
22.70008,22.70008,22.70008,0.00219,0.00219,0.00219,0.96254,11789.25586,11353.27832,0
22.80009,22.80009,22.80009,0.00222,0.00222,0.00222,0.96254,11789.25586,11353.25879,0
22.90008,22.90008,22.90008,0.00210,0.00210,0.00210,0.96254,11789.25586,11353.34668,0
23.00008,23.00008,23.00008,0.00213,0.00213,0.00213,0.96254,11789.25586,11353.32910,0
23.10008,23.10008,23.10008,0.00212,0.00212,0.00212,0.96254,11789.25586,11353.33496,0
23.20008,23.20008,23.20008,0.00212,0.00212,0.00212,0.96254,11789.25586,11353.34277,0
23.30008,23.30008,23.30008,0.00215,0.00215,0.00215,0.96254,11789.25586,11353.32422,0
23.40008,23.40008,23.40008,0.00203,0.00203,0.00203,0.96255,11789.25586,11353.41016,0
23.50008,23.50008,23.50008,0.00206,0.00206,0.00206,0.96255,11789.25586,11353.39258,0
23.60008,23.60008,23.60008,0.00205,0.00205,0.00205,0.96255,11789.25586,11353.39941,0
23.70008,23.70008,23.70008,0.00205,0.00205,0.00205,0.96255,11789.25586,11353.40527,0
