x,y,z,vx,vy,vz,temperature,density,pressure,is_star
0.02976,0.02976,0.02976,1.01977,1.01977,1.01977,0.91432,11789.25586,10784.53125,0
0.11026,0.11026,0.11026,0.29820,0.29820,0.29820,0.95073,11789.25586,11213.98828,0
0.20653,0.20653,0.20653,0.20297,0.20297,0.20297,0.95784,11789.25586,11297.85742,0
0.30476,0.30476,0.30476,0.15052,0.15052,0.15052,0.96124,11789.25586,11337.96191,0
0.40374,0.40374,0.40374,0.11914,0.11914,0.11914,0.96321,11789.25586,11361.18848,0
0.50307,0.50307,0.50307,0.09842,0.09842,0.09842,0.96449,11789.25586,11376.30273,0
0.60261,0.60261,0.60261,0.08376,0.08376,0.08376,0.96539,11789.25586,11386.90137,0
0.70226,0.70226,0.70226,0.07283,0.07283,0.07283,0.96605,11789.25586,11394.75391,0
0.80200,0.80200,0.80200,0.06441,0.06441,0.06441,0.96657,11789.25586,11400.78516,0
0.90179,0.90179,0.90179,0.05771,0.05771,0.05771,0.96697,11789.25586,11405.57031,0
1.00162,1.00162,1.00162,0.05225,0.05225,0.05225,0.96730,11789.25586,11409.46191,0
1.10148,1.10148,1.10148,0.04773,0.04773,0.04773,0.96757,11789.25586,11412.68359,0
1.20136,1.20136,1.20136,0.04390,0.04390,0.04390,0.96780,11789.25586,11415.39844,0
1.30126,1.30126,1.30126,0.04066,0.04066,0.04066,0.96800,11789.25586,11417.70312,0
1.40117,1.40117,1.40117,0.03784,0.03784,0.03784,0.96817,11789.25586,11419.70508,0
1.50109,1.50109,1.50109,0.03536,0.03536,0.03536,0.96832,11789.25586,11421.45508,0
1.60103,1.60103,1.60103,0.03323,0.03323,0.03323,0.96845,11789.25586,11422.97363,0
1.70097,1.70097,1.70097,0.03131,0.03131,0.03131,0.96856,11789.25586,11424.33496,0
1.80091,1.80091,1.80091,0.02960,0.02960,0.02960,0.96866,11789.25586,11425.54492,0
1.90086,1.90086,1.90086,0.02803,0.02803,0.02803,0.96876,11789.25586,11426.64746,0
2.00082,2.00082,2.00082,0.02667,0.02667,0.02667,0.96884,11789.25586,11427.61914,0
2.10078,2.10078,2.10078,0.02541,0.02541,0.02541,0.96892,11789.25586,11428.50488,0
2.20075,2.20075,2.20075,0.02425,0.02425,0.02425,0.96898,11789.25586,11429.32520,0
2.30072,2.30072,2.30072,0.02320,0.02320,0.02320,0.96905,11789.25586,11430.07422,0
2.40069,2.40069,2.40069,0.02223,0.02223,0.02223,0.96911,11789.25586,11430.75293,0
2.50066,2.50066,2.50066,0.02135,0.02135,0.02135,0.96916,11789.25586,11431.37988,0
2.60063,2.60063,2.60063,0.02051,0.02051,0.02051,0.96921,11789.25586,11431.96973,0
2.70061,2.70061,2.70061,0.01975,0.01975,0.01975,0.96925,11789.25586,11432.50586,0
2.80059,2.80059,2.80059,0.01904,0.01904,0.01904,0.96930,11789.25586,11433.01270,0
2.90057,2.90057,2.90057,0.01838,0.01838,0.01838,0.96934,11789.25586,11433.47363,0
3.00055,3.00055,3.00055,0.01775,0.01775,0.01775,0.96937,11789.25586,11433.91699,0
3.10053,3.10053,3.10053,0.01717,0.01717,0.01717,0.96941,11789.25586,11434.32812,0
3.20051,3.20051,3.20051,0.01664,0.01664,0.01664,0.96944,11789.25586,11434.70801,0
3.30050,3.30050,3.30050,0.01611,0.01611,0.01611,0.96947,11789.25586,11435.08008,0
3.40048,3.40048,3.40048,0.01564,0.01564,0.01564,0.96950,11789.25586,11435.41016,0
3.50047,3.50047,3.50047,0.01517,0.01517,0.01517,0.96953,11789.25586,11435.74023,0
3.60046,3.60046,3.60046,0.01476,0.01476,0.01476,0.96955,11789.25586,11436.03711,0
3.70044,3.70044,3.70044,0.01431,0.01431,0.01431,0.96958,11789.25586,11436.34473,0
3.80043,3.80043,3.80043,0.01396,0.01396,0.01396,0.96960,11789.25586,11436.60156,0
3.90042,3.90042,3.90042,0.01360,0.01360,0.01360,0.96962,11789.25586,11436.85352,0
4.00041,4.00041,4.00041,0.01322,0.01322,0.01322,0.96965,11789.25586,11437.12207,0
4.10040,4.10040,4.10040,0.01288,0.01288,0.01288,0.96967,11789.25586,11437.35449,0
4.20039,4.20039,4.20039,0.01259,0.01259,0.01259,0.96968,11789.25586,11437.56250,0
4.30038,4.30038,4.30038,0.01229,0.01229,0.01229,0.96970,11789.25586,11437.78516,0
4.40037,4.40037,4.40037,0.01199,0.01199,0.01199,0.96972,11789.25586,11437.99414,0
4.50036,4.50036,4.50036,0.01171,0.01171,0.01171,0.96974,11789.25586,11438.18066,0
4.60035,4.60035,4.60035,0.01144,0.01144,0.01144,0.96975,11789.25586,11438.37402,0
4.70035,4.70035,4.70035,0.01120,0.01120,0.01120,0.96977,11789.25586,11438.54980,0
4.80034,4.80034,4.80034,0.01095,0.01095,0.01095,0.96978,11789.25586,11438.72266,0
4.90033,4.90033,4.90033,0.01072,0.01072,0.01072,0.96980,11789.25586,11438.89062,0
5.00032,5.00032,5.00032,0.01049,0.01049,0.01049,0.96981,11789.25586,11439.04492,0
5.10032,5.10032,5.10032,0.01027,0.01027,0.01027,0.96982,11789.25586,11439.20020,0
5.20031,5.20031,5.20031,0.01007,0.01007,0.01007,0.96983,11789.25586,11439.34180,0
5.30030,5.30030,5.30030,0.00987,0.00987,0.00987,0.96985,11789.25586,11439.48535,0
5.40030,5.40030,5.40030,0.00970,0.00970,0.00970,0.96986,11789.25586,11439.61328,0
5.50029,5.50029,5.50029,0.00946,0.00946,0.00946,0.96987,11789.25586,11439.76758,0
5.60029,5.60029,5.60029,0.00932,0.00932,0.00932,0.96988,11789.25586,11439.87793,0
5.70028,5.70028,5.70028,0.00916,0.00916,0.00916,0.96989,11789.25586,11439.99023,0
5.80028,5.80028,5.80028,0.00898,0.00898,0.00898,0.96990,11789.25586,11440.11328,0
5.90027,5.90027,5.90027,0.00881,0.00881,0.00881,0.96991,11789.25586,11440.23438,0
6.00027,6.00027,6.00027,0.00865,0.00865,0.00865,0.96992,11789.25586,11440.34668,0
6.10026,6.10026,6.10026,0.00850,0.00850,0.00850,0.96993,11789.25586,11440.45215,0
6.20026,6.20026,6.20026,0.00838,0.00838,0.00838,0.96994,11789.25586,11440.54199,0
6.30025,6.30025,6.30025,0.00821,0.00821,0.00821,0.96995,11789.25586,11440.65234,0
6.40025,6.40025,6.40025,0.00807,0.00807,0.00807,0.96995,11789.25586,11440.75586,0
6.50025,6.50025,6.50025,0.00796,0.00796,0.00796,0.96996,11789.25586,11440.83887,0
6.60024,6.60024,6.60024,0.00782,0.00782,0.00782,0.96997,11789.25586,11440.93359,0
6.70024,6.70024,6.70024,0.00769,0.00769,0.00769,0.96998,11789.25586,11441.02051,0
6.80023,6.80023,6.80023,0.00757,0.00757,0.00757,0.96998,11789.25586,11441.10547,0
6.90023,6.90023,6.90023,0.00746,0.00746,0.00746,0.96999,11789.25586,11441.19434,0
7.00023,7.00023,7.00023,0.00734,0.00734,0.00734,0.97000,11789.25586,11441.27637,0
7.10022,7.10022,7.10022,0.00720,0.00720,0.00720,0.97001,11789.25586,11441.35938,0
7.20022,7.20022,7.20022,0.00714,0.00714,0.00714,0.97001,11789.25586,11441.41602,0
7.30022,7.30022,7.30022,0.00705,0.00705,0.00705,0.97002,11789.25586,11441.48340,0
7.40021,7.40021,7.40021,0.00687,0.00687,0.00687,0.97002,11789.25586,11441.59375,0
7.50021,7.50021,7.50021,0.00681,0.00681,0.00681,0.97003,11789.25586,11441.64648,0
7.60021,7.60021,7.60021,0.00670,0.00670,0.00670,0.97004,11789.25586,11441.72266,0
7.70020,7.70020,7.70020,0.00662,0.00662,0.00662,0.97004,11789.25586,11441.77930,0
7.80020,7.80020,7.80020,0.00653,0.00653,0.00653,0.97005,11789.25586,11441.84375,0
7.90020,7.90020,7.90020,0.00645,0.00645,0.00645,0.97005,11789.25586,11441.90430,0
8.00019,8.00019,8.00019,0.00631,0.00631,0.00631,0.97006,11789.25586,11441.98828,0
8.10019,8.10019,8.10019,0.00628,0.00628,0.00628,0.97006,11789.25586,11442.02734,0
8.20019,8.20019,8.20019,0.00617,0.00617,0.00617,0.97007,11789.25586,11442.09766,0
8.30019,8.30019,8.30019,0.00609,0.00609,0.00609,0.97007,11789.25586,11442.15430,0
8.40019,8.40019,8.40019,0.00604,0.00604,0.00604,0.97008,11789.25586,11442.19238,0
8.50018,8.50018,8.50018,0.00591,0.00591,0.00591,0.97008,11789.25586,11442.27832,0
8.60018,8.60018,8.60018,0.00589,0.00589,0.00589,0.97009,11789.25586,11442.30371,0
8.70018,8.70018,8.70018,0.00576,0.00576,0.00576,0.97009,11789.25586,11442.38086,0
8.80018,8.80018,8.80018,0.00572,0.00572,0.00572,0.97009,11789.25586,11442.41602,0
8.90018,8.90018,8.90018,0.00569,0.00569,0.00569,0.97010,11789.25586,11442.44238,0
9.00017,9.00017,9.00017,0.00552,0.00552,0.00552,0.97011,11789.25586,11442.54590,0
9.10017,9.10017,9.10017,0.00552,0.00552,0.00552,0.97011,11789.25586,11442.55957,0
9.20017,9.20017,9.20017,0.00542,0.00542,0.00542,0.97011,11789.25586,11442.62695,0
9.30017,9.30017,9.30017,0.00537,0.00537,0.00537,0.97012,11789.25586,11442.65918,0
9.40016,9.40016,9.40016,0.00532,0.00532,0.00532,0.97012,11789.25586,11442.69727,0
9.50016,9.50016,9.50016,0.00524,0.00524,0.00524,0.97012,11789.25586,11442.75781,0
9.60016,9.60016,9.60016,0.00518,0.00518,0.00518,0.97013,11789.25586,11442.79004,0
9.70016,9.70016,9.70016,0.00511,0.00511,0.00511,0.97013,11789.25586,11442.84473,0
9.80016,9.80016,9.80016,0.00507,0.00507,0.00507,0.97013,11789.25586,11442.87695,0
9.90015,9.90015,9.90015,0.00502,0.00502,0.00502,0.97014,11789.25586,11442.91113,0
10.00015,10.00015,10.00015,0.00495,0.00495,0.00495,0.97014,11789.25586,11442.96289,0
10.10015,10.10015,10.10015,0.00491,0.00491,0.00491,0.97014,11789.25586,11442.99219,0
10.20015,10.20015,10.20015,0.00481,0.00481,0.00481,0.97015,11789.25586,11443.04785,0
10.30015,10.30015,10.30015,0.00479,0.00479,0.00479,0.97015,11789.25586,11443.07520,0
10.40015,10.40015,10.40015,0.00476,0.00476,0.00476,0.97015,11789.25586,11443.10059,0
10.50014,10.50014,10.50014,0.00467,0.00467,0.00467,0.97016,11789.25586,11443.15332,0
10.60014,10.60014,10.60014,0.00465,0.00465,0.00465,0.97016,11789.25586,11443.17188,0
10.70014,10.70014,10.70014,0.00456,0.00456,0.00456,0.97016,11789.25586,11443.23340,0
10.80014,10.80014,10.80014,0.00453,0.00453,0.00453,0.97017,11789.25586,11443.25586,0
10.90014,10.90014,10.90014,0.00449,0.00449,0.00449,0.97017,11789.25586,11443.28027,0
11.00014,11.00014,11.00014,0.00444,0.00444,0.00444,0.97017,11789.25586,11443.32227,0
11.10013,11.10013,11.10013,0.00439,0.00439,0.00439,0.97017,11789.25586,11443.35059,0
11.20013,11.20013,11.20013,0.00434,0.00434,0.00434,0.97018,11789.25586,11443.39551,0
11.30013,11.30013,11.30013,0.00431,0.00431,0.00431,0.97018,11789.25586,11443.41602,0
11.40013,11.40013,11.40013,0.00427,0.00427,0.00427,0.97018,11789.25586,11443.44043,0
11.50013,11.50013,11.50013,0.00421,0.00421,0.00421,0.97018,11789.25586,11443.48145,0
11.60013,11.60013,11.60013,0.00418,0.00418,0.00418,0.97019,11789.25586,11443.50098,0
11.70013,11.70013,11.70013,0.00411,0.00411,0.00411,0.97019,11789.25586,11443.54785,0
11.80013,11.80013,11.80013,0.00409,0.00409,0.00409,0.97019,11789.25586,11443.56543,0
11.90013,11.90013,11.90013,0.00408,0.00408,0.00408,0.97019,11789.25586,11443.57812,0
12.00012,12.00012,12.00012,0.00399,0.00399,0.00399,0.97020,11789.25586,11443.63379,0
12.10012,12.10012,12.10012,0.00400,0.00400,0.00400,0.97020,11789.25586,11443.63379,0
12.20012,12.20012,12.20012,0.00390,0.00390,0.00390,0.97020,11789.25586,11443.69434,0
12.30012,12.30012,12.30012,0.00389,0.00389,0.00389,0.97020,11789.25586,11443.70215,0
12.40012,12.40012,12.40012,0.00388,0.00388,0.00388,0.97020,11789.25586,11443.71387,0
12.50012,12.50012,12.50012,0.00380,0.00380,0.00380,0.97021,11789.25586,11443.77148,0
12.60012,12.60012,12.60012,0.00380,0.00380,0.00380,0.97021,11789.25586,11443.77344,0
12.70012,12.70012,12.70012,0.00374,0.00374,0.00374,0.97021,11789.25586,11443.81152,0
12.80011,12.80011,12.80011,0.00371,0.00371,0.00371,0.97022,11789.25586,11443.83691,0
12.90012,12.90012,12.90012,0.00370,0.00370,0.00370,0.97022,11789.25586,11443.84180,0
13.00011,13.00011,13.00011,0.00363,0.00363,0.00363,0.97022,11789.25586,11443.88770,0
13.10011,13.10011,13.10011,0.00362,0.00362,0.00362,0.97022,11789.25586,11443.89355,0
13.20011,13.20011,13.20011,0.00357,0.00357,0.00357,0.97022,11789.25586,11443.93750,0
13.30011,13.30011,13.30011,0.00355,0.00355,0.00355,0.97022,11789.25586,11443.94727,0
13.40011,13.40011,13.40011,0.00355,0.00355,0.00355,0.97022,11789.25586,11443.95020,0
13.50011,13.50011,13.50011,0.00345,0.00345,0.00345,0.97023,11789.25586,11444.00977,0
13.60011,13.60011,13.60011,0.00347,0.00347,0.00347,0.97023,11789.25586,11444.00781,0
13.70010,13.70010,13.70010,0.00341,0.00341,0.00341,0.97023,11789.25586,11444.04590,0
13.80010,13.80010,13.80010,0.00339,0.00339,0.00339,0.97023,11789.25586,11444.05762,0
13.90010,13.90010,13.90010,0.00339,0.00339,0.00339,0.97023,11789.25586,11444.06543,0
14.00010,14.00010,14.00010,0.00331,0.00331,0.00331,0.97024,11789.25586,11444.11035,0
14.10010,14.10010,14.10010,0.00332,0.00332,0.00332,0.97024,11789.25586,11444.11035,0
14.20010,14.20010,14.20010,0.00326,0.00326,0.00326,0.97024,11789.25586,11444.14844,0
14.30010,14.30010,14.30010,0.00326,0.00326,0.00326,0.97024,11789.25586,11444.15723,0
14.40010,14.40010,14.40010,0.00323,0.00323,0.00323,0.97024,11789.25586,11444.17188,0
14.50010,14.50010,14.50010,0.00318,0.00318,0.00318,0.97025,11789.25586,11444.20605,0
14.60010,14.60010,14.60010,0.00318,0.00318,0.00318,0.97025,11789.25586,11444.20801,0
14.70010,14.70010,14.70010,0.00313,0.00313,0.00313,0.97025,11789.25586,11444.24316,0
14.80010,14.80010,14.80010,0.00311,0.00311,0.00311,0.97025,11789.25586,11444.25586,0
14.90010,14.90010,14.90010,0.00311,0.00311,0.00311,0.97025,11789.25586,11444.25781,0
15.00009,15.00009,15.00009,0.00304,0.00304,0.00304,0.97025,11789.25586,11444.30566,0
15.10009,15.10009,15.10009,0.00305,0.00305,0.00305,0.97025,11789.25586,11444.29785,0
15.20009,15.20009,15.20009,0.00299,0.00299,0.00299,0.97026,11789.25586,11444.33984,0
15.30009,15.30009,15.30009,0.00299,0.00299,0.00299,0.97026,11789.25586,11444.34570,0
15.40009,15.40009,15.40009,0.00298,0.00298,0.00298,0.97026,11789.25586,11444.35156,0
15.50009,15.50009,15.50009,0.00293,0.00293,0.00293,0.97026,11789.25586,11444.38770,0
15.60009,15.60009,15.60009,0.00294,0.00294,0.00294,0.97026,11789.25586,11444.38379,0
15.70009,15.70009,15.70009,0.00287,0.00287,0.00287,0.97026,11789.25586,11444.42285,0
15.80009,15.80009,15.80009,0.00287,0.00287,0.00287,0.97026,11789.25586,11444.42480,0
15.90009,15.90009,15.90009,0.00291,0.00291,0.00291,0.97026,11789.25586,11444.40625,0
16.00008,16.00008,16.00008,0.00276,0.00276,0.00276,0.97027,11789.25586,11444.50098,0
16.10008,16.10008,16.10008,0.00279,0.00279,0.00279,0.97027,11789.25586,11444.48340,0
16.20008,16.20008,16.20008,0.00278,0.00278,0.00278,0.97027,11789.25586,11444.49023,0
16.30008,16.30008,16.30008,0.00278,0.00278,0.00278,0.97027,11789.25586,11444.48926,0
16.40008,16.40008,16.40008,0.00271,0.00271,0.00271,0.97027,11789.25586,11444.54004,0
16.50008,16.50008,16.50008,0.00271,0.00271,0.00271,0.97027,11789.25586,11444.53906,0
16.60008,16.60008,16.60008,0.00269,0.00269,0.00269,0.97028,11789.25586,11444.55566,0
16.70008,16.70008,16.70008,0.00268,0.00268,0.00268,0.97028,11789.25586,11444.56543,0
16.80008,16.80008,16.80008,0.00269,0.00269,0.00269,0.97028,11789.25586,11444.55762,0
16.90007,16.90007,16.90007,0.00259,0.00259,0.00259,0.97028,11789.25586,11444.62305,0
17.00007,17.00007,17.00007,0.00260,0.00260,0.00260,0.97028,11789.25586,11444.61328,0
17.10007,17.10007,17.10007,0.00259,0.00259,0.00259,0.97028,11789.25586,11444.62500,0
17.20008,17.20008,17.20008,0.00258,0.00258,0.00258,0.97028,11789.25586,11444.63477,0
17.30008,17.30008,17.30008,0.00259,0.00259,0.00259,0.97028,11789.25586,11444.62598,0
17.40007,17.40007,17.40007,0.00249,0.00249,0.00249,0.97029,11789.25586,11444.69043,0
17.50007,17.50007,17.50007,0.00251,0.00251,0.00251,0.97029,11789.25586,11444.68164,0
17.60007,17.60007,17.60007,0.00249,0.00249,0.00249,0.97029,11789.25586,11444.69141,0
17.70007,17.70007,17.70007,0.00248,0.00248,0.00248,0.97029,11789.25586,11444.70117,0
17.80007,17.80007,17.80007,0.00250,0.00250,0.00250,0.97029,11789.25586,11444.69238,0
17.90007,17.90007,17.90007,0.00240,0.00240,0.00240,0.97029,11789.25586,11444.75488,0
18.00007,18.00007,18.00007,0.00241,0.00241,0.00241,0.97029,11789.25586,11444.74707,0
18.10007,18.10007,18.10007,0.00240,0.00240,0.00240,0.97029,11789.25586,11444.75879,0
18.20007,18.20007,18.20007,0.00239,0.00239,0.00239,0.97029,11789.25586,11444.76562,0
18.30007,18.30007,18.30007,0.00241,0.00241,0.00241,0.97029,11789.25586,11444.75879,0
18.40007,18.40007,18.40007,0.00231,0.00231,0.00231,0.97030,11789.25586,11444.81934,0
18.50007,18.50007,18.50007,0.00233,0.00233,0.00233,0.97030,11789.25586,11444.81055,0
18.60007,18.60007,18.60007,0.00231,0.00231,0.00231,0.97030,11789.25586,11444.81934,0
18.70007,18.70007,18.70007,0.00230,0.00230,0.00230,0.97030,11789.25586,11444.82715,0
18.80007,18.80007,18.80007,0.00232,0.00232,0.00232,0.97030,11789.25586,11444.81934,0
18.90007,18.90007,18.90007,0.00222,0.00222,0.00222,0.97030,11789.25586,11444.87695,0
19.00007,19.00007,19.00007,0.00224,0.00224,0.00224,0.97030,11789.25586,11444.86914,0
19.10007,19.10007,19.10007,0.00223,0.00223,0.00223,0.97030,11789.25586,11444.87695,0
19.20007,19.20007,19.20007,0.00222,0.00222,0.00222,0.97030,11789.25586,11444.88672,0
19.30007,19.30007,19.30007,0.00224,0.00224,0.00224,0.97030,11789.25586,11444.87598,0
19.40006,19.40006,19.40006,0.00213,0.00213,0.00213,0.97031,11789.25586,11444.93945,0
19.50007,19.50007,19.50007,0.00219,0.00219,0.00219,0.97031,11789.25586,11444.91602,0
19.60007,19.60007,19.60007,0.00214,0.00214,0.00214,0.97031,11789.25586,11444.93750,0
19.70007,19.70007,19.70007,0.00214,0.00214,0.00214,0.97031,11789.25586,11444.94238,0
19.80007,19.80007,19.80007,0.00216,0.00216,0.00216,0.97031,11789.25586,11444.93359,0
19.90006,19.90006,19.90006,0.00206,0.00206,0.00206,0.97031,11789.25586,11444.99316,0
20.00006,20.00006,20.00006,0.00212,0.00212,0.00212,0.97031,11789.25586,11444.96875,0
20.10006,20.10006,20.10006,0.00207,0.00207,0.00207,0.97031,11789.25586,11444.99023,0
20.20006,20.20006,20.20006,0.00207,0.00207,0.00207,0.97031,11789.25586,11444.99512,0
20.30006,20.30006,20.30006,0.00207,0.00207,0.00207,0.97031,11789.25586,11444.98926,0
20.40006,20.40006,20.40006,0.00201,0.00201,0.00201,0.97032,11789.25586,11445.03613,0
20.50006,20.50006,20.50006,0.00203,0.00203,0.00203,0.97032,11789.25586,11445.02441,0
20.60006,20.60006,20.60006,0.00199,0.00199,0.00199,0.97032,11789.25586,11445.04199,0
20.70006,20.70006,20.70006,0.00200,0.00200,0.00200,0.97032,11789.25586,11445.04395,0
20.80006,20.80006,20.80006,0.00201,0.00201,0.00201,0.97032,11789.25586,11445.03613,0
20.90006,20.90006,20.90006,0.00191,0.00191,0.00191,0.97032,11789.25586,11445.08691,0
21.00006,21.00006,21.00006,0.00197,0.00197,0.00197,0.97032,11789.25586,11445.06934,0
21.10006,21.10006,21.10006,0.00193,0.00193,0.00193,0.97032,11789.25586,11445.08594,0
21.20006,21.20006,21.20006,0.00193,0.00193,0.00193,0.97032,11789.25586,11445.08887,0
21.30006,21.30006,21.30006,0.00195,0.00195,0.00195,0.97032,11789.25586,11445.08691,0
21.40006,21.40006,21.40006,0.00185,0.00185,0.00185,0.97033,11789.25586,11445.14453,0
21.50006,21.50006,21.50006,0.00191,0.00191,0.00191,0.97032,11789.25586,11445.11719,0
21.60006,21.60006,21.60006,0.00186,0.00186,0.00186,0.97033,11789.25586,11445.14160,0
21.70006,21.70006,21.70006,0.00186,0.00186,0.00186,0.97033,11789.25586,11445.14258,0
21.80006,21.80006,21.80006,0.00188,0.00188,0.00188,0.97032,11789.25586,11445.12500,0
21.90005,21.90005,21.90005,0.00179,0.00179,0.00179,0.97033,11789.25586,11445.19141,0
22.00006,22.00006,22.00006,0.00184,0.00184,0.00184,0.97033,11789.25586,11445.15723,0
22.10006,22.10006,22.10006,0.00180,0.00180,0.00180,0.97033,11789.25586,11445.18750,0
22.20006,22.20006,22.20006,0.00180,0.00180,0.00180,0.97033,11789.25586,11445.18750,0
22.30006,22.30006,22.30006,0.00182,0.00182,0.00182,0.97033,11789.25586,11445.17969,0
22.40005,22.40005,22.40005,0.00174,0.00174,0.00174,0.97033,11789.25586,11445.22168,0
22.50005,22.50005,22.50005,0.00176,0.00176,0.00176,0.97033,11789.25586,11445.21191,0
22.60005,22.60005,22.60005,0.00175,0.00175,0.00175,0.97033,11789.25586,11445.21680,0
22.70005,22.70005,22.70005,0.00174,0.00174,0.00174,0.97033,11789.25586,11445.22168,0
22.80005,22.80005,22.80005,0.00176,0.00176,0.00176,0.97033,11789.25586,11445.21191,0
22.90005,22.90005,22.90005,0.00168,0.00168,0.00168,0.97034,11789.25586,11445.26270,0
23.00005,23.00005,23.00005,0.00170,0.00170,0.00170,0.97034,11789.25586,11445.25293,0
23.10005,23.10005,23.10005,0.00169,0.00169,0.00169,0.97034,11789.25586,11445.25781,0
23.20005,23.20005,23.20005,0.00168,0.00168,0.00168,0.97034,11789.25586,11445.26270,0
23.30005,23.30005,23.30005,0.00170,0.00170,0.00170,0.97034,11789.25586,11445.25293,0
23.40005,23.40005,23.40005,0.00162,0.00162,0.00162,0.97034,11789.25586,11445.30371,0
23.50005,23.50005,23.50005,0.00164,0.00164,0.00164,0.97034,11789.25586,11445.29395,0
23.60005,23.60005,23.60005,0.00163,0.00163,0.00163,0.97034,11789.25586,11445.29883,0
23.70005,23.70005,23.70005,0.00163,0.00163,0.00163,0.97034,11789.25586,11445.30273,0
