x,y,z,vx,vy,vz,temperature,density,pressure,is_star
0.02394,0.02394,0.02394,0.89931,0.89931,0.89931,0.92781,11789.25586,10943.69141,0
0.10850,0.10850,0.10850,0.28336,0.28336,0.28336,0.95694,11789.25586,11287.30469,0
0.20535,0.20535,0.20535,0.18641,0.18641,0.18641,0.96298,11789.25586,11358.55176,0
0.30389,0.30389,0.30389,0.13724,0.13724,0.13724,0.96581,11789.25586,11391.86816,0
0.40305,0.40305,0.40305,0.10828,0.10828,0.10828,0.96743,11789.25586,11411.03809,0
0.50251,0.50251,0.50251,0.08928,0.08928,0.08928,0.96849,11789.25586,11423.47168,0
0.60212,0.60212,0.60212,0.07589,0.07589,0.07589,0.96923,11789.25586,11432.17383,0
0.70184,0.70184,0.70184,0.06594,0.06594,0.06594,0.96977,11789.25586,11438.61133,0
0.80163,0.80163,0.80163,0.05829,0.05829,0.05829,0.97019,11789.25586,11443.55176,0
0.90146,0.90146,0.90146,0.05220,0.05220,0.05220,0.97052,11789.25586,11447.46777,0
1.00132,1.00132,1.00132,0.04725,0.04725,0.04725,0.97079,11789.25586,11450.65234,0
1.10120,1.10120,1.10120,0.04315,0.04315,0.04315,0.97102,11789.25586,11453.28613,0
1.20110,1.20110,1.20110,0.03968,0.03968,0.03968,0.97120,11789.25586,11455.50586,0
1.30102,1.30102,1.30102,0.03675,0.03675,0.03675,0.97136,11789.25586,11457.38770,0
1.40095,1.40095,1.40095,0.03419,0.03419,0.03419,0.97150,11789.25586,11459.02344,0
1.50089,1.50089,1.50089,0.03195,0.03195,0.03195,0.97162,11789.25586,11460.45215,0
1.60083,1.60083,1.60083,0.03002,0.03002,0.03002,0.97173,11789.25586,11461.69434,0
1.70079,1.70079,1.70079,0.02828,0.02828,0.02828,0.97182,11789.25586,11462.80762,0
1.80074,1.80074,1.80074,0.02674,0.02674,0.02674,0.97191,11789.25586,11463.79492,0
1.90070,1.90070,1.90070,0.02532,0.02532,0.02532,0.97198,11789.25586,11464.69238,0
2.00067,2.00067,2.00067,0.02409,0.02409,0.02409,0.97205,11789.25586,11465.48828,0
2.10064,2.10064,2.10064,0.02295,0.02295,0.02295,0.97211,11789.25586,11466.21094,0
2.20061,2.20061,2.20061,0.02190,0.02190,0.02190,0.97217,11789.25586,11466.87988,0
2.30058,2.30058,2.30058,0.02095,0.02095,0.02095,0.97222,11789.25586,11467.49219,0
2.40056,2.40056,2.40056,0.02008,0.02008,0.02008,0.97227,11789.25586,11468.04590,0
2.50054,2.50054,2.50054,0.01928,0.01928,0.01928,0.97231,11789.25586,11468.55859,0
2.60051,2.60051,2.60051,0.01852,0.01852,0.01852,0.97235,11789.25586,11469.03906,0
2.70050,2.70050,2.70050,0.01784,0.01784,0.01784,0.97239,11789.25586,11469.47461,0
2.80048,2.80048,2.80048,0.01719,0.01719,0.01719,0.97242,11789.25586,11469.88867,0
2.90046,2.90046,2.90046,0.01660,0.01660,0.01660,0.97246,11789.25586,11470.26660,0
3.00045,3.00045,3.00045,0.01603,0.01603,0.01603,0.97249,11789.25586,11470.62793,0
3.10043,3.10043,3.10043,0.01551,0.01551,0.01551,0.97251,11789.25586,11470.96387,0
3.20042,3.20042,3.20042,0.01502,0.01502,0.01502,0.97254,11789.25586,11471.27344,0
3.30040,3.30040,3.30040,0.01454,0.01454,0.01454,0.97257,11789.25586,11471.57715,0
3.40039,3.40039,3.40039,0.01412,0.01412,0.01412,0.97259,11789.25586,11471.84766,0
3.50038,3.50038,3.50038,0.01370,0.01370,0.01370,0.97261,11789.25586,11472.11523,0
3.60037,3.60037,3.60037,0.01332,0.01332,0.01332,0.97263,11789.25586,11472.35840,0
3.70036,3.70036,3.70036,0.01293,0.01293,0.01293,0.97265,11789.25586,11472.60840,0
3.80035,3.80035,3.80035,0.01260,0.01260,0.01260,0.97267,11789.25586,11472.81934,0
3.90034,3.90034,3.90034,0.01228,0.01228,0.01228,0.97269,11789.25586,11473.02344,0
4.00033,4.00033,4.00033,0.01193,0.01193,0.01193,0.97271,11789.25586,11473.24316,0
4.10032,4.10032,4.10032,0.01163,0.01163,0.01163,0.97272,11789.25586,11473.43164,0
4.20032,4.20032,4.20032,0.01137,0.01137,0.01137,0.97274,11789.25586,11473.60254,0
4.30031,4.30031,4.30031,0.01109,0.01109,0.01109,0.97275,11789.25586,11473.78516,0
4.40030,4.40030,4.40030,0.01082,0.01082,0.01082,0.97277,11789.25586,11473.95410,0
4.50029,4.50029,4.50029,0.01057,0.01057,0.01057,0.97278,11789.25586,11474.10645,0
4.60029,4.60029,4.60029,0.01033,0.01033,0.01033,0.97279,11789.25586,11474.26465,0
4.70028,4.70028,4.70028,0.01011,0.01011,0.01011,0.97281,11789.25586,11474.40918,0
4.80027,4.80027,4.80027,0.00988,0.00988,0.00988,0.97282,11789.25586,11474.54883,0
4.90027,4.90027,4.90027,0.00968,0.00968,0.00968,0.97283,11789.25586,11474.68652,0
5.00026,5.00026,5.00026,0.00947,0.00947,0.00947,0.97284,11789.25586,11474.81250,0
5.10026,5.10026,5.10026,0.00927,0.00927,0.00927,0.97285,11789.25586,11474.93750,0
5.20025,5.20025,5.20025,0.00910,0.00910,0.00910,0.97286,11789.25586,11475.05273,0
5.30025,5.30025,5.30025,0.00891,0.00891,0.00891,0.97287,11789.25586,11475.17188,0
5.40024,5.40024,5.40024,0.00875,0.00875,0.00875,0.97288,11789.25586,11475.27539,0
5.50024,5.50024,5.50024,0.00854,0.00854,0.00854,0.97289,11789.25586,11475.39941,0
5.60023,5.60023,5.60023,0.00841,0.00841,0.00841,0.97290,11789.25586,11475.49219,0
5.70023,5.70023,5.70023,0.00827,0.00827,0.00827,0.97291,11789.25586,11475.58301,0
5.80023,5.80023,5.80023,0.00811,0.00811,0.00811,0.97292,11789.25586,11475.68457,0
5.90022,5.90022,5.90022,0.00795,0.00795,0.00795,0.97292,11789.25586,11475.78320,0
6.00022,6.00022,6.00022,0.00781,0.00781,0.00781,0.97293,11789.25586,11475.87500,0
6.10021,6.10021,6.10021,0.00767,0.00767,0.00767,0.97294,11789.25586,11475.95996,0
6.20021,6.20021,6.20021,0.00756,0.00756,0.00756,0.97294,11789.25586,11476.03320,0
6.30021,6.30021,6.30021,0.00742,0.00742,0.00742,0.97295,11789.25586,11476.12305,0
6.40020,6.40020,6.40020,0.00729,0.00729,0.00729,0.97296,11789.25586,11476.20801,0
6.50020,6.50020,6.50020,0.00718,0.00718,0.00718,0.97297,11789.25586,11476.27441,0
6.60020,6.60020,6.60020,0.00706,0.00706,0.00706,0.97297,11789.25586,11476.35352,0
6.70019,6.70019,6.70019,0.00694,0.00694,0.00694,0.97298,11789.25586,11476.42285,0
6.80019,6.80019,6.80019,0.00684,0.00684,0.00684,0.97298,11789.25586,11476.49121,0
6.90019,6.90019,6.90019,0.00673,0.00673,0.00673,0.97299,11789.25586,11476.56641,0
7.00018,7.00018,7.00018,0.00662,0.00662,0.00662,0.97300,11789.25586,11476.63281,0
7.10018,7.10018,7.10018,0.00651,0.00651,0.00651,0.97300,11789.25586,11476.69922,0
7.20018,7.20018,7.20018,0.00644,0.00644,0.00644,0.97301,11789.25586,11476.74609,0
7.30018,7.30018,7.30018,0.00636,0.00636,0.00636,0.97301,11789.25586,11476.80176,0
7.40017,7.40017,7.40017,0.00621,0.00621,0.00621,0.97302,11789.25586,11476.89062,0
7.50017,7.50017,7.50017,0.00615,0.00615,0.00615,0.97302,11789.25586,11476.93457,0
7.60017,7.60017,7.60017,0.00605,0.00605,0.00605,0.97303,11789.25586,11476.99512,0
7.70017,7.70017,7.70017,0.00598,0.00598,0.00598,0.97303,11789.25586,11477.04199,0
7.80016,7.80016,7.80016,0.00590,0.00590,0.00590,0.97303,11789.25586,11477.09570,0
7.90016,7.90016,7.90016,0.00582,0.00582,0.00582,0.97304,11789.25586,11477.14453,0
8.00016,8.00016,8.00016,0.00570,0.00570,0.00570,0.97304,11789.25586,11477.21191,0
8.10016,8.10016,8.10016,0.00566,0.00566,0.00566,0.97305,11789.25586,11477.24512,0
8.20016,8.20016,8.20016,0.00557,0.00557,0.00557,0.97305,11789.25586,11477.30176,0
8.30015,8.30015,8.30015,0.00549,0.00549,0.00549,0.97306,11789.25586,11477.34766,0
8.40015,8.40015,8.40015,0.00545,0.00545,0.00545,0.97306,11789.25586,11477.38086,0
8.50015,8.50015,8.50015,0.00533,0.00533,0.00533,0.97306,11789.25586,11477.44824,0
8.60015,8.60015,8.60015,0.00531,0.00531,0.00531,0.97307,11789.25586,11477.47168,0
8.70014,8.70014,8.70014,0.00520,0.00520,0.00520,0.97307,11789.25586,11477.53320,0
8.80014,8.80014,8.80014,0.00516,0.00516,0.00516,0.97307,11789.25586,11477.56152,0
8.90014,8.90014,8.90014,0.00514,0.00514,0.00514,0.97308,11789.25586,11477.58594,0
9.00014,9.00014,9.00014,0.00499,0.00499,0.00499,0.97308,11789.25586,11477.66602,0
9.10014,9.10014,9.10014,0.00498,0.00498,0.00498,0.97308,11789.25586,11477.67871,0
9.20014,9.20014,9.20014,0.00490,0.00490,0.00490,0.97309,11789.25586,11477.73340,0
9.30013,9.30013,9.30013,0.00485,0.00485,0.00485,0.97309,11789.25586,11477.75977,0
9.40013,9.40013,9.40013,0.00481,0.00481,0.00481,0.97309,11789.25586,11477.79199,0
9.50013,9.50013,9.50013,0.00473,0.00473,0.00473,0.97310,11789.25586,11477.84082,0
9.60013,9.60013,9.60013,0.00468,0.00468,0.00468,0.97310,11789.25586,11477.86523,0
9.70013,9.70013,9.70013,0.00461,0.00461,0.00461,0.97310,11789.25586,11477.91113,0
9.80013,9.80013,9.80013,0.00457,0.00457,0.00457,0.97311,11789.25586,11477.93750,0
9.90013,9.90013,9.90013,0.00453,0.00453,0.00453,0.97311,11789.25586,11477.96484,0
10.00012,10.00012,10.00012,0.00446,0.00446,0.00446,0.97311,11789.25586,11478.00781,0
10.10012,10.10012,10.10012,0.00443,0.00443,0.00443,0.97311,11789.25586,11478.03125,0
10.20012,10.20012,10.20012,0.00435,0.00435,0.00435,0.97312,11789.25586,11478.07617,0
10.30012,10.30012,10.30012,0.00432,0.00432,0.00432,0.97312,11789.25586,11478.09961,0
10.40012,10.40012,10.40012,0.00429,0.00429,0.00429,0.97312,11789.25586,11478.12012,0
10.50012,10.50012,10.50012,0.00422,0.00422,0.00422,0.97313,11789.25586,11478.16211,0
10.60012,10.60012,10.60012,0.00420,0.00420,0.00420,0.97313,11789.25586,11478.17773,0
10.70011,10.70011,10.70011,0.00412,0.00412,0.00412,0.97313,11789.25586,11478.22754,0
10.80011,10.80011,10.80011,0.00409,0.00409,0.00409,0.97313,11789.25586,11478.24707,0
10.90011,10.90011,10.90011,0.00406,0.00406,0.00406,0.97313,11789.25586,11478.26660,0
11.00011,11.00011,11.00011,0.00401,0.00401,0.00401,0.97314,11789.25586,11478.30176,0
11.10011,11.10011,11.10011,0.00396,0.00396,0.00396,0.97314,11789.25586,11478.32324,0
11.20011,11.20011,11.20011,0.00391,0.00391,0.00391,0.97314,11789.25586,11478.36035,0
11.30011,11.30011,11.30011,0.00389,0.00389,0.00389,0.97314,11789.25586,11478.37695,0
11.40011,11.40011,11.40011,0.00385,0.00385,0.00385,0.97315,11789.25586,11478.39746,0
11.50011,11.50011,11.50011,0.00380,0.00380,0.00380,0.97315,11789.25586,11478.43066,0
11.60011,11.60011,11.60011,0.00378,0.00378,0.00378,0.97315,11789.25586,11478.44727,0
11.70010,11.70010,11.70010,0.00371,0.00371,0.00371,0.97315,11789.25586,11478.48535,0
11.80010,11.80010,11.80010,0.00369,0.00369,0.00369,0.97315,11789.25586,11478.49805,0
11.90010,11.90010,11.90010,0.00368,0.00368,0.00368,0.97315,11789.25586,11478.51074,0
12.00010,12.00010,12.00010,0.00360,0.00360,0.00360,0.97316,11789.25586,11478.55371,0
12.10010,12.10010,12.10010,0.00361,0.00361,0.00361,0.97316,11789.25586,11478.55371,0
12.20010,12.20010,12.20010,0.00353,0.00353,0.00353,0.97316,11789.25586,11478.60352,0
12.30010,12.30010,12.30010,0.00352,0.00352,0.00352,0.97316,11789.25586,11478.61035,0
12.40010,12.40010,12.40010,0.00350,0.00350,0.00350,0.97316,11789.25586,11478.62305,0
12.50009,12.50009,12.50009,0.00343,0.00343,0.00343,0.97317,11789.25586,11478.66797,0
12.60009,12.60009,12.60009,0.00343,0.00343,0.00343,0.97317,11789.25586,11478.66895,0
12.70009,12.70009,12.70009,0.00338,0.00338,0.00338,0.97317,11789.25586,11478.69824,0
12.80009,12.80009,12.80009,0.00335,0.00335,0.00335,0.97317,11789.25586,11478.72070,0
12.90009,12.90009,12.90009,0.00334,0.00334,0.00334,0.97317,11789.25586,11478.72559,0
13.00009,13.00009,13.00009,0.00328,0.00328,0.00328,0.97318,11789.25586,11478.76270,0
13.10009,13.10009,13.10009,0.00327,0.00327,0.00327,0.97318,11789.25586,11478.76660,0
13.20009,13.20009,13.20009,0.00322,0.00322,0.00322,0.97318,11789.25586,11478.80371,0
13.30009,13.30009,13.30009,0.00321,0.00321,0.00321,0.97318,11789.25586,11478.81152,0
13.40009,13.40009,13.40009,0.00321,0.00321,0.00321,0.97318,11789.25586,11478.81445,0
13.50009,13.50009,13.50009,0.00312,0.00312,0.00312,0.97318,11789.25586,11478.86133,0
13.60009,13.60009,13.60009,0.00313,0.00313,0.00313,0.97318,11789.25586,11478.85938,0
13.70008,13.70008,13.70008,0.00308,0.00308,0.00308,0.97319,11789.25586,11478.89062,0
13.80009,13.80009,13.80009,0.00306,0.00306,0.00306,0.97319,11789.25586,11478.90039,0
13.90009,13.90009,13.90009,0.00306,0.00306,0.00306,0.97319,11789.25586,11478.90723,0
14.00008,14.00008,14.00008,0.00299,0.00299,0.00299,0.97319,11789.25586,11478.94336,0
14.10008,14.10008,14.10008,0.00300,0.00300,0.00300,0.97319,11789.25586,11478.94434,0
14.20008,14.20008,14.20008,0.00294,0.00294,0.00294,0.97319,11789.25586,11478.97461,0
14.30008,14.30008,14.30008,0.00294,0.00294,0.00294,0.97319,11789.25586,11478.98145,0
14.40008,14.40008,14.40008,0.00292,0.00292,0.00292,0.97320,11789.25586,11478.99414,0
14.50008,14.50008,14.50008,0.00287,0.00287,0.00287,0.97320,11789.25586,11479.02148,0
14.60008,14.60008,14.60008,0.00287,0.00287,0.00287,0.97320,11789.25586,11479.02441,0
14.70008,14.70008,14.70008,0.00283,0.00283,0.00283,0.97320,11789.25586,11479.05176,0
14.80008,14.80008,14.80008,0.00281,0.00281,0.00281,0.97320,11789.25586,11479.06152,0
14.90008,14.90008,14.90008,0.00281,0.00281,0.00281,0.97320,11789.25586,11479.06445,0
15.00008,15.00008,15.00008,0.00274,0.00274,0.00274,0.97321,11789.25586,11479.10254,0
15.10008,15.10008,15.10008,0.00276,0.00276,0.00276,0.97320,11789.25586,11479.09668,0
15.20007,15.20007,15.20007,0.00270,0.00270,0.00270,0.97321,11789.25586,11479.12988,0
15.30007,15.30007,15.30007,0.00270,0.00270,0.00270,0.97321,11789.25586,11479.13574,0
15.40007,15.40007,15.40007,0.00269,0.00269,0.00269,0.97321,11789.25586,11479.14062,0
15.50007,15.50007,15.50007,0.00264,0.00264,0.00264,0.97321,11789.25586,11479.16895,0
15.60007,15.60007,15.60007,0.00265,0.00265,0.00265,0.97321,11789.25586,11479.16699,0
15.70007,15.70007,15.70007,0.00259,0.00259,0.00259,0.97321,11789.25586,11479.19727,0
15.80007,15.80007,15.80007,0.00259,0.00259,0.00259,0.97321,11789.25586,11479.19922,0
15.90007,15.90007,15.90007,0.00262,0.00262,0.00262,0.97321,11789.25586,11479.18555,0
16.00006,16.00006,16.00006,0.00250,0.00250,0.00250,0.97322,11789.25586,11479.26172,0
16.10007,16.10007,16.10007,0.00252,0.00252,0.00252,0.97322,11789.25586,11479.24707,0
16.20007,16.20007,16.20007,0.00251,0.00251,0.00251,0.97322,11789.25586,11479.25195,0
16.30007,16.30007,16.30007,0.00251,0.00251,0.00251,0.97322,11789.25586,11479.25195,0
16.40006,16.40006,16.40006,0.00244,0.00244,0.00244,0.97322,11789.25586,11479.29297,0
16.50006,16.50006,16.50006,0.00245,0.00245,0.00245,0.97322,11789.25586,11479.29199,0
16.60007,16.60007,16.60007,0.00243,0.00243,0.00243,0.97322,11789.25586,11479.30664,0
16.70007,16.70007,16.70007,0.00242,0.00242,0.00242,0.97322,11789.25586,11479.31445,0
16.80007,16.80007,16.80007,0.00243,0.00243,0.00243,0.97322,11789.25586,11479.30859,0
16.90006,16.90006,16.90006,0.00234,0.00234,0.00234,0.97323,11789.25586,11479.36035,0
17.00006,17.00006,17.00006,0.00235,0.00235,0.00235,0.97323,11789.25586,11479.35352,0
17.10006,17.10006,17.10006,0.00234,0.00234,0.00234,0.97323,11789.25586,11479.36230,0
17.20006,17.20006,17.20006,0.00233,0.00233,0.00233,0.97323,11789.25586,11479.37012,0
17.30006,17.30006,17.30006,0.00234,0.00234,0.00234,0.97323,11789.25586,11479.36523,0
17.40006,17.40006,17.40006,0.00225,0.00225,0.00225,0.97323,11789.25586,11479.41504,0
17.50006,17.50006,17.50006,0.00226,0.00226,0.00226,0.97323,11789.25586,11479.40918,0
17.60006,17.60006,17.60006,0.00225,0.00225,0.00225,0.97323,11789.25586,11479.41699,0
17.70006,17.70006,17.70006,0.00224,0.00224,0.00224,0.97323,11789.25586,11479.42480,0
17.80006,17.80006,17.80006,0.00225,0.00225,0.00225,0.97323,11789.25586,11479.41797,0
17.90006,17.90006,17.90006,0.00216,0.00216,0.00216,0.97324,11789.25586,11479.46777,0
18.00006,18.00006,18.00006,0.00218,0.00218,0.00218,0.97324,11789.25586,11479.46289,0
18.10006,18.10006,18.10006,0.00217,0.00217,0.00217,0.97324,11789.25586,11479.47168,0
18.20006,18.20006,18.20006,0.00216,0.00216,0.00216,0.97324,11789.25586,11479.47754,0
18.30006,18.30006,18.30006,0.00217,0.00217,0.00217,0.97324,11789.25586,11479.47266,0
18.40006,18.40006,18.40006,0.00208,0.00208,0.00208,0.97324,11789.25586,11479.52051,0
18.50006,18.50006,18.50006,0.00210,0.00210,0.00210,0.97324,11789.25586,11479.51367,0
18.60006,18.60006,18.60006,0.00209,0.00209,0.00209,0.97324,11789.25586,11479.52051,0
18.70006,18.70006,18.70006,0.00208,0.00208,0.00208,0.97324,11789.25586,11479.52832,0
18.80006,18.80006,18.80006,0.00209,0.00209,0.00209,0.97324,11789.25586,11479.52148,0
18.90005,18.90005,18.90005,0.00201,0.00201,0.00201,0.97324,11789.25586,11479.56836,0
19.00006,19.00006,19.00006,0.00202,0.00202,0.00202,0.97324,11789.25586,11479.56250,0
19.10006,19.10006,19.10006,0.00201,0.00201,0.00201,0.97324,11789.25586,11479.56836,0
19.20006,19.20006,19.20006,0.00200,0.00200,0.00200,0.97325,11789.25586,11479.57617,0
19.30006,19.30006,19.30006,0.00202,0.00202,0.00202,0.97324,11789.25586,11479.56836,0
19.40005,19.40005,19.40005,0.00193,0.00193,0.00193,0.97325,11789.25586,11479.61816,0
19.50006,19.50006,19.50006,0.00198,0.00198,0.00198,0.97325,11789.25586,11479.60156,0
19.60005,19.60005,19.60005,0.00193,0.00193,0.00193,0.97325,11789.25586,11479.61816,0
19.70005,19.70005,19.70005,0.00193,0.00193,0.00193,0.97325,11789.25586,11479.62207,0
19.80005,19.80005,19.80005,0.00195,0.00195,0.00195,0.97325,11789.25586,11479.61523,0
19.90005,19.90005,19.90005,0.00186,0.00186,0.00186,0.97325,11789.25586,11479.66211,0
20.00005,20.00005,20.00005,0.00191,0.00191,0.00191,0.97325,11789.25586,11479.64551,0
20.10005,20.10005,20.10005,0.00187,0.00187,0.00187,0.97325,11789.25586,11479.65918,0
20.20005,20.20005,20.20005,0.00186,0.00186,0.00186,0.97325,11789.25586,11479.66406,0
20.30005,20.30005,20.30005,0.00187,0.00187,0.00187,0.97325,11789.25586,11479.66113,0
20.40005,20.40005,20.40005,0.00182,0.00182,0.00182,0.97326,11789.25586,11479.69824,0
20.50005,20.50005,20.50005,0.00183,0.00183,0.00183,0.97325,11789.25586,11479.68945,0
20.60005,20.60005,20.60005,0.00180,0.00180,0.00180,0.97326,11789.25586,11479.70215,0
20.70005,20.70005,20.70005,0.00180,0.00180,0.00180,0.97326,11789.25586,11479.70508,0
20.80005,20.80005,20.80005,0.00182,0.00182,0.00182,0.97326,11789.25586,11479.70020,0
20.90005,20.90005,20.90005,0.00173,0.00173,0.00173,0.97326,11789.25586,11479.73828,0
21.00005,21.00005,21.00005,0.00178,0.00178,0.00178,0.97326,11789.25586,11479.72656,0
21.10005,21.10005,21.10005,0.00174,0.00174,0.00174,0.97326,11789.25586,11479.73828,0
21.20005,21.20005,21.20005,0.00174,0.00174,0.00174,0.97326,11789.25586,11479.74121,0
21.30005,21.30005,21.30005,0.00176,0.00176,0.00176,0.97326,11789.25586,11479.73926,0
21.40005,21.40005,21.40005,0.00167,0.00167,0.00167,0.97326,11789.25586,11479.78613,0
21.50005,21.50005,21.50005,0.00172,0.00172,0.00172,0.97326,11789.25586,11479.76562,0
21.60005,21.60005,21.60005,0.00168,0.00168,0.00168,0.97326,11789.25586,11479.78613,0
21.70005,21.70005,21.70005,0.00168,0.00168,0.00168,0.97326,11789.25586,11479.78613,0
21.80005,21.80005,21.80005,0.00170,0.00170,0.00170,0.97326,11789.25586,11479.77051,0
21.90004,21.90004,21.90004,0.00161,0.00161,0.00161,0.97327,11789.25586,11479.82520,0
22.00005,22.00005,22.00005,0.00166,0.00166,0.00166,0.97326,11789.25586,11479.79785,0
22.10004,22.10004,22.10004,0.00162,0.00162,0.00162,0.97327,11789.25586,11479.82324,0
22.20004,22.20004,22.20004,0.00163,0.00163,0.00163,0.97327,11789.25586,11479.82324,0
22.30005,22.30005,22.30005,0.00164,0.00164,0.00164,0.97327,11789.25586,11479.81836,0
22.40004,22.40004,22.40004,0.00157,0.00157,0.00157,0.97327,11789.25586,11479.84961,0
22.50004,22.50004,22.50004,0.00158,0.00158,0.00158,0.97327,11789.25586,11479.84082,0
22.60004,22.60004,22.60004,0.00158,0.00158,0.00158,0.97327,11789.25586,11479.84570,0
22.70004,22.70004,22.70004,0.00157,0.00157,0.00157,0.97327,11789.25586,11479.84961,0
22.80004,22.80004,22.80004,0.00159,0.00159,0.00159,0.97327,11789.25586,11479.84277,0
22.90004,22.90004,22.90004,0.00151,0.00151,0.00151,0.97327,11789.25586,11479.88281,0
23.00004,23.00004,23.00004,0.00153,0.00153,0.00153,0.97327,11789.25586,11479.87598,0
23.10004,23.10004,23.10004,0.00153,0.00153,0.00153,0.97327,11789.25586,11479.87988,0
23.20004,23.20004,23.20004,0.00152,0.00152,0.00152,0.97327,11789.25586,11479.88379,0
23.30004,23.30004,23.30004,0.00154,0.00154,0.00154,0.97327,11789.25586,11479.87598,0
23.40004,23.40004,23.40004,0.00146,0.00146,0.00146,0.97327,11789.25586,11479.91602,0
23.50004,23.50004,23.50004,0.00148,0.00148,0.00148,0.97327,11789.25586,11479.90918,0
23.60004,23.60004,23.60004,0.00148,0.00148,0.00148,0.97327,11789.25586,11479.91309,0
23.70004,23.70004,23.70004,0.00147,0.00147,0.00147,0.97327,11789.25586,11479.91602,0
