x,y,z,vx,vy,vz,temperature,density,pressure,is_star
0.05064,0.05064,0.05064,1.43231,1.43231,1.43231,0.86946,11789.25586,10255.43945,0
0.11533,0.11533,0.11533,0.27957,0.27957,0.27957,0.93315,11789.25586,11006.68750,0
0.21036,0.21036,0.21036,0.24220,0.24220,0.24220,0.94249,11789.25586,11116.81934,0
0.30764,0.30764,0.30764,0.18485,0.18485,0.18485,0.94763,11789.25586,11177.43555,0
0.40603,0.40603,0.40603,0.14809,0.14809,0.14809,0.95068,11789.25586,11213.46777,0
0.50497,0.50497,0.50497,0.12312,0.12312,0.12312,0.95270,11789.25586,11237.19922,0
0.60423,0.60423,0.60423,0.10521,0.10521,0.10521,0.95412,11789.25586,11253.96094,0
0.70367,0.70367,0.70367,0.09173,0.09173,0.09173,0.95518,11789.25586,11266.44043,0
0.80325,0.80325,0.80325,0.08128,0.08128,0.08128,0.95599,11789.25586,11276.05371,0
0.90291,0.90291,0.90291,0.07293,0.07293,0.07293,0.95664,11789.25586,11283.69922,0
1.00263,1.00263,1.00263,0.06610,0.06610,0.06610,0.95717,11789.25586,11289.92676,0
1.10240,1.10240,1.10240,0.06043,0.06043,0.06043,0.95760,11789.25586,11295.09473,0
1.20221,1.20221,1.20221,0.05562,0.05562,0.05562,0.95797,11789.25586,11299.45215,0
1.30205,1.30205,1.30205,0.05154,0.05154,0.05154,0.95829,11789.25586,11303.15039,0
1.40191,1.40191,1.40191,0.04799,0.04799,0.04799,0.95856,11789.25586,11306.36914,0
1.50178,1.50178,1.50178,0.04486,0.04486,0.04486,0.95880,11789.25586,11309.18848,0
1.60167,1.60167,1.60167,0.04217,0.04217,0.04217,0.95901,11789.25586,11311.62988,0
1.70158,1.70158,1.70158,0.03974,0.03974,0.03974,0.95919,11789.25586,11313.82129,0
1.80149,1.80149,1.80149,0.03759,0.03759,0.03759,0.95936,11789.25586,11315.76758,0
1.90141,1.90141,1.90141,0.03558,0.03558,0.03558,0.95951,11789.25586,11317.55371,0
2.00134,2.00134,2.00134,0.03388,0.03388,0.03388,0.95964,11789.25586,11319.10938,0
2.10128,2.10128,2.10128,0.03228,0.03228,0.03228,0.95976,11789.25586,11320.54297,0
2.20122,2.20122,2.20122,0.03081,0.03081,0.03081,0.95987,11789.25586,11321.86426,0
2.30117,2.30117,2.30117,0.02947,0.02947,0.02947,0.95998,11789.25586,11323.07324,0
2.40112,2.40112,2.40112,0.02825,0.02825,0.02825,0.96007,11789.25586,11324.16992,0
2.50108,2.50108,2.50108,0.02714,0.02714,0.02714,0.96016,11789.25586,11325.17871,0
2.60103,2.60103,2.60103,0.02607,0.02607,0.02607,0.96024,11789.25586,11326.13477,0
2.70099,2.70099,2.70099,0.02511,0.02511,0.02511,0.96031,11789.25586,11326.99902,0
2.80096,2.80096,2.80096,0.02419,0.02419,0.02419,0.96038,11789.25586,11327.81543,0
2.90093,2.90093,2.90093,0.02337,0.02337,0.02337,0.96044,11789.25586,11328.56055,0
3.00089,3.00089,3.00089,0.02257,0.02257,0.02257,0.96050,11789.25586,11329.27832,0
3.10086,3.10086,3.10086,0.02184,0.02184,0.02184,0.96056,11789.25586,11329.94043,0
3.20084,3.20084,3.20084,0.02116,0.02116,0.02116,0.96061,11789.25586,11330.55273,0
3.30081,3.30081,3.30081,0.02047,0.02047,0.02047,0.96066,11789.25586,11331.15723,0
3.40079,3.40079,3.40079,0.01989,0.01989,0.01989,0.96071,11789.25586,11331.68555,0
3.50076,3.50076,3.50076,0.01929,0.01929,0.01929,0.96075,11789.25586,11332.22363,0
3.60074,3.60074,3.60074,0.01878,0.01878,0.01878,0.96079,11789.25586,11332.69727,0
3.70072,3.70072,3.70072,0.01819,0.01819,0.01819,0.96084,11789.25586,11333.20410,0
3.80070,3.80070,3.80070,0.01776,0.01776,0.01776,0.96087,11789.25586,11333.61035,0
3.90069,3.90069,3.90069,0.01731,0.01731,0.01731,0.96090,11789.25586,11334.01660,0
4.00067,4.00067,4.00067,0.01681,0.01681,0.01681,0.96094,11789.25586,11334.45410,0
4.10065,4.10065,4.10065,0.01638,0.01638,0.01638,0.96097,11789.25586,11334.83301,0
4.20063,4.20063,4.20063,0.01602,0.01602,0.01602,0.96100,11789.25586,11335.16602,0
4.30062,4.30062,4.30062,0.01563,0.01563,0.01563,0.96103,11789.25586,11335.52148,0
4.40060,4.40060,4.40060,0.01524,0.01524,0.01524,0.96106,11789.25586,11335.85938,0
4.50059,4.50059,4.50059,0.01490,0.01490,0.01490,0.96109,11789.25586,11336.16602,0
4.60058,4.60058,4.60058,0.01455,0.01455,0.01455,0.96111,11789.25586,11336.47754,0
4.70056,4.70056,4.70056,0.01425,0.01425,0.01425,0.96114,11789.25586,11336.75879,0
4.80055,4.80055,4.80055,0.01392,0.01392,0.01392,0.96116,11789.25586,11337.04297,0
4.90054,4.90054,4.90054,0.01364,0.01364,0.01364,0.96118,11789.25586,11337.30859,0
5.00053,5.00053,5.00053,0.01335,0.01335,0.01335,0.96121,11789.25586,11337.56152,0
5.10052,5.10052,5.10052,0.01307,0.01307,0.01307,0.96123,11789.25586,11337.81348,0
5.20051,5.20051,5.20051,0.01281,0.01281,0.01281,0.96125,11789.25586,11338.04004,0
5.30050,5.30050,5.30050,0.01255,0.01255,0.01255,0.96127,11789.25586,11338.27148,0
5.40049,5.40049,5.40049,0.01234,0.01234,0.01234,0.96128,11789.25586,11338.47559,0
5.50047,5.50047,5.50047,0.01202,0.01202,0.01202,0.96130,11789.25586,11338.73730,0
5.60047,5.60047,5.60047,0.01186,0.01186,0.01186,0.96132,11789.25586,11338.90723,0
5.70046,5.70046,5.70046,0.01165,0.01165,0.01165,0.96133,11789.25586,11339.08887,0
5.80045,5.80045,5.80045,0.01143,0.01143,0.01143,0.96135,11789.25586,11339.28809,0
5.90044,5.90044,5.90044,0.01120,0.01120,0.01120,0.96137,11789.25586,11339.48535,0
6.00044,6.00044,6.00044,0.01101,0.01101,0.01101,0.96138,11789.25586,11339.66406,0
6.10043,6.10043,6.10043,0.01081,0.01081,0.01081,0.96140,11789.25586,11339.83887,0
6.20042,6.20042,6.20042,0.01066,0.01066,0.01066,0.96141,11789.25586,11339.97852,0
6.30041,6.30041,6.30041,0.01045,0.01045,0.01045,0.96143,11789.25586,11340.16211,0
6.40041,6.40041,6.40041,0.01026,0.01026,0.01026,0.96144,11789.25586,11340.32715,0
6.50040,6.50040,6.50040,0.01013,0.01013,0.01013,0.96145,11789.25586,11340.45898,0
6.60039,6.60039,6.60039,0.00995,0.00995,0.00995,0.96146,11789.25586,11340.61328,0
6.70039,6.70039,6.70039,0.00978,0.00978,0.00978,0.96148,11789.25586,11340.75879,0
6.80038,6.80038,6.80038,0.00964,0.00964,0.00964,0.96149,11789.25586,11340.89258,0
6.90038,6.90038,6.90038,0.00949,0.00949,0.00949,0.96150,11789.25586,11341.03125,0
7.00037,7.00037,7.00037,0.00934,0.00934,0.00934,0.96151,11789.25586,11341.16699,0
7.10036,7.10036,7.10036,0.00915,0.00915,0.00915,0.96152,11789.25586,11341.31152,0
7.20036,7.20036,7.20036,0.00909,0.00909,0.00909,0.96153,11789.25586,11341.39062,0
7.30036,7.30036,7.30036,0.00898,0.00898,0.00898,0.96154,11789.25586,11341.49707,0
7.40034,7.40034,7.40034,0.00873,0.00873,0.00873,0.96156,11789.25586,11341.68945,0
7.50034,7.50034,7.50034,0.00867,0.00867,0.00867,0.96156,11789.25586,11341.76562,0
7.60034,7.60034,7.60034,0.00852,0.00852,0.00852,0.96157,11789.25586,11341.89062,0
7.70033,7.70033,7.70033,0.00843,0.00843,0.00843,0.96158,11789.25586,11341.98145,0
7.80033,7.80033,7.80033,0.00831,0.00831,0.00831,0.96159,11789.25586,11342.08496,0
7.90032,7.90032,7.90032,0.00822,0.00822,0.00822,0.96160,11789.25586,11342.18066,0
8.00032,8.00032,8.00032,0.00802,0.00802,0.00802,0.96161,11789.25586,11342.32812,0
8.10032,8.10032,8.10032,0.00799,0.00799,0.00799,0.96161,11789.25586,11342.37793,0
8.20031,8.20031,8.20031,0.00786,0.00786,0.00786,0.96162,11789.25586,11342.49414,0
8.30031,8.30031,8.30031,0.00774,0.00774,0.00774,0.96163,11789.25586,11342.59180,0
8.40030,8.40030,8.40030,0.00771,0.00771,0.00771,0.96164,11789.25586,11342.64258,0
8.50030,8.50030,8.50030,0.00750,0.00750,0.00750,0.96165,11789.25586,11342.79785,0
8.60030,8.60030,8.60030,0.00750,0.00750,0.00750,0.96165,11789.25586,11342.82324,0
8.70029,8.70029,8.70029,0.00731,0.00731,0.00731,0.96166,11789.25586,11342.96191,0
8.80029,8.80029,8.80029,0.00728,0.00728,0.00728,0.96167,11789.25586,11343.01074,0
8.90029,8.90029,8.90029,0.00726,0.00726,0.00726,0.96167,11789.25586,11343.04590,0
9.00028,9.00028,9.00028,0.00701,0.00701,0.00701,0.96169,11789.25586,11343.23145,0
9.10028,9.10028,9.10028,0.00703,0.00703,0.00703,0.96169,11789.25586,11343.24121,0
9.20027,9.20027,9.20027,0.00690,0.00690,0.00690,0.96170,11789.25586,11343.35156,0
9.30027,9.30027,9.30027,0.00684,0.00684,0.00684,0.96170,11789.25586,11343.40723,0
9.40027,9.40027,9.40027,0.00677,0.00677,0.00677,0.96171,11789.25586,11343.46680,0
9.50026,9.50026,9.50026,0.00667,0.00667,0.00667,0.96171,11789.25586,11343.56445,0
9.60026,9.60026,9.60026,0.00659,0.00659,0.00659,0.96172,11789.25586,11343.62109,0
9.70026,9.70026,9.70026,0.00650,0.00650,0.00650,0.96173,11789.25586,11343.70508,0
9.80025,9.80025,9.80025,0.00645,0.00645,0.00645,0.96173,11789.25586,11343.75781,0
9.90025,9.90025,9.90025,0.00638,0.00638,0.00638,0.96174,11789.25586,11343.81445,0
10.00025,10.00025,10.00025,0.00629,0.00629,0.00629,0.96174,11789.25586,11343.89453,0
10.10025,10.10025,10.10025,0.00624,0.00624,0.00624,0.96175,11789.25586,11343.94238,0
10.20024,10.20024,10.20024,0.00611,0.00611,0.00611,0.96175,11789.25586,11344.04102,0
10.30024,10.30024,10.30024,0.00609,0.00609,0.00609,0.96176,11789.25586,11344.07812,0
10.40024,10.40024,10.40024,0.00606,0.00606,0.00606,0.96176,11789.25586,11344.11133,0
10.50024,10.50024,10.50024,0.00594,0.00594,0.00594,0.96177,11789.25586,11344.20508,0
10.60023,10.60023,10.60023,0.00592,0.00592,0.00592,0.96177,11789.25586,11344.23340,0
10.70023,10.70023,10.70023,0.00579,0.00579,0.00579,0.96178,11789.25586,11344.33496,0
10.80023,10.80023,10.80023,0.00577,0.00577,0.00577,0.96178,11789.25586,11344.36914,0
10.90023,10.90023,10.90023,0.00571,0.00571,0.00571,0.96179,11789.25586,11344.40918,0
11.00022,11.00022,11.00022,0.00566,0.00566,0.00566,0.96179,11789.25586,11344.47070,0
11.10022,11.10022,11.10022,0.00557,0.00557,0.00557,0.96180,11789.25586,11344.52930,0
11.20022,11.20022,11.20022,0.00551,0.00551,0.00551,0.96180,11789.25586,11344.59277,0
11.30022,11.30022,11.30022,0.00548,0.00548,0.00548,0.96180,11789.25586,11344.62695,0
11.40021,11.40021,11.40021,0.00543,0.00543,0.00543,0.96181,11789.25586,11344.66797,0
11.50021,11.50021,11.50021,0.00535,0.00535,0.00535,0.96181,11789.25586,11344.73438,0
11.60021,11.60021,11.60021,0.00533,0.00533,0.00533,0.96182,11789.25586,11344.76465,0
11.70020,11.70020,11.70020,0.00522,0.00522,0.00522,0.96182,11789.25586,11344.84473,0
11.80021,11.80021,11.80021,0.00521,0.00521,0.00521,0.96182,11789.25586,11344.87012,0
11.90020,11.90020,11.90020,0.00520,0.00520,0.00520,0.96183,11789.25586,11344.88672,0
12.00020,12.00020,12.00020,0.00507,0.00507,0.00507,0.96183,11789.25586,11344.98535,0
12.10020,12.10020,12.10020,0.00510,0.00510,0.00510,0.96183,11789.25586,11344.97461,0
12.20020,12.20020,12.20020,0.00496,0.00496,0.00496,0.96184,11789.25586,11345.08301,0
12.30019,12.30019,12.30019,0.00495,0.00495,0.00495,0.96184,11789.25586,11345.09375,0
12.40020,12.40020,12.40020,0.00495,0.00495,0.00495,0.96184,11789.25586,11345.10840,0
12.50019,12.50019,12.50019,0.00482,0.00482,0.00482,0.96185,11789.25586,11345.20801,0
12.60019,12.60019,12.60019,0.00483,0.00483,0.00483,0.96185,11789.25586,11345.20605,0
12.70019,12.70019,12.70019,0.00476,0.00476,0.00476,0.96186,11789.25586,11345.26855,0
12.80019,12.80019,12.80019,0.00472,0.00472,0.00472,0.96186,11789.25586,11345.30664,0
12.90019,12.90019,12.90019,0.00472,0.00472,0.00472,0.96186,11789.25586,11345.31445,0
13.00018,13.00018,13.00018,0.00462,0.00462,0.00462,0.96187,11789.25586,11345.39355,0
13.10018,13.10018,13.10018,0.00460,0.00460,0.00460,0.96187,11789.25586,11345.40527,0
13.20018,13.20018,13.20018,0.00454,0.00454,0.00454,0.96188,11789.25586,11345.46973,0
13.30018,13.30018,13.30018,0.00452,0.00452,0.00452,0.96188,11789.25586,11345.48926,0
13.40018,13.40018,13.40018,0.00453,0.00453,0.00453,0.96188,11789.25586,11345.48828,0
13.50017,13.50017,13.50017,0.00438,0.00438,0.00438,0.96189,11789.25586,11345.59473,0
13.60017,13.60017,13.60017,0.00442,0.00442,0.00442,0.96189,11789.25586,11345.58301,0
13.70017,13.70017,13.70017,0.00433,0.00433,0.00433,0.96189,11789.25586,11345.65137,0
13.80017,13.80017,13.80017,0.00432,0.00432,0.00432,0.96189,11789.25586,11345.66602,0
13.90017,13.90017,13.90017,0.00431,0.00431,0.00431,0.96189,11789.25586,11345.67676,0
14.00016,14.00016,14.00016,0.00421,0.00421,0.00421,0.96190,11789.25586,11345.75488,0
14.10017,14.10017,14.10017,0.00423,0.00423,0.00423,0.96190,11789.25586,11345.75000,0
14.20016,14.20016,14.20016,0.00414,0.00414,0.00414,0.96190,11789.25586,11345.81641,0
14.30016,14.30016,14.30016,0.00415,0.00415,0.00415,0.96191,11789.25586,11345.82617,0
14.40016,14.40016,14.40016,0.00412,0.00412,0.00412,0.96191,11789.25586,11345.85156,0
14.50016,14.50016,14.50016,0.00403,0.00403,0.00403,0.96191,11789.25586,11345.91113,0
14.60016,14.60016,14.60016,0.00406,0.00406,0.00406,0.96191,11789.25586,11345.90820,0
14.70016,14.70016,14.70016,0.00398,0.00398,0.00398,0.96192,11789.25586,11345.96777,0
14.80016,14.80016,14.80016,0.00395,0.00395,0.00395,0.96192,11789.25586,11345.98828,0
14.90016,14.90016,14.90016,0.00397,0.00397,0.00397,0.96192,11789.25586,11345.98730,0
15.00015,15.00015,15.00015,0.00386,0.00386,0.00386,0.96193,11789.25586,11346.07129,0
15.10015,15.10015,15.10015,0.00390,0.00390,0.00390,0.96193,11789.25586,11346.05371,0
15.20015,15.20015,15.20015,0.00379,0.00379,0.00379,0.96193,11789.25586,11346.12793,0
15.30015,15.30015,15.30015,0.00380,0.00380,0.00380,0.96193,11789.25586,11346.13477,0
15.40015,15.40015,15.40015,0.00379,0.00379,0.00379,0.96193,11789.25586,11346.14062,0
15.50015,15.50015,15.50015,0.00372,0.00372,0.00372,0.96194,11789.25586,11346.20117,0
15.60015,15.60015,15.60015,0.00374,0.00374,0.00374,0.96194,11789.25586,11346.19043,0
15.70014,15.70014,15.70014,0.00365,0.00365,0.00365,0.96194,11789.25586,11346.26074,0
15.80015,15.80015,15.80015,0.00366,0.00366,0.00366,0.96194,11789.25586,11346.25977,0
15.90015,15.90015,15.90015,0.00372,0.00372,0.00372,0.96194,11789.25586,11346.22363,0
16.00014,16.00014,16.00014,0.00348,0.00348,0.00348,0.96195,11789.25586,11346.39258,0
16.10014,16.10014,16.10014,0.00355,0.00355,0.00355,0.96195,11789.25586,11346.35449,0
16.20014,16.20014,16.20014,0.00354,0.00354,0.00354,0.96195,11789.25586,11346.36816,0
16.30014,16.30014,16.30014,0.00355,0.00355,0.00355,0.96195,11789.25586,11346.36426,0
16.40014,16.40014,16.40014,0.00343,0.00343,0.00343,0.96196,11789.25586,11346.45117,0
16.50014,16.50014,16.50014,0.00345,0.00345,0.00345,0.96196,11789.25586,11346.44824,0
16.60014,16.60014,16.60014,0.00343,0.00343,0.00343,0.96196,11789.25586,11346.46875,0
16.70013,16.70013,16.70013,0.00340,0.00340,0.00340,0.96196,11789.25586,11346.48828,0
16.80014,16.80014,16.80014,0.00345,0.00345,0.00345,0.96196,11789.25586,11346.46875,0
16.90013,16.90013,16.90013,0.00328,0.00328,0.00328,0.96197,11789.25586,11346.58691,0
17.00013,17.00013,17.00013,0.00331,0.00331,0.00331,0.96197,11789.25586,11346.56738,0
17.10013,17.10013,17.10013,0.00330,0.00330,0.00330,0.96197,11789.25586,11346.58398,0
17.20013,17.20013,17.20013,0.00328,0.00328,0.00328,0.96197,11789.25586,11346.60059,0
17.30013,17.30013,17.30013,0.00331,0.00331,0.00331,0.96197,11789.25586,11346.58398,0
17.40012,17.40012,17.40012,0.00315,0.00315,0.00315,0.96198,11789.25586,11346.69629,0
17.50012,17.50012,17.50012,0.00319,0.00319,0.00319,0.96198,11789.25586,11346.67773,0
17.60012,17.60012,17.60012,0.00317,0.00317,0.00317,0.96198,11789.25586,11346.69434,0
17.70012,17.70012,17.70012,0.00315,0.00315,0.00315,0.96198,11789.25586,11346.70898,0
17.80012,17.80012,17.80012,0.00319,0.00319,0.00319,0.96198,11789.25586,11346.69043,0
17.90011,17.90011,17.90011,0.00303,0.00303,0.00303,0.96199,11789.25586,11346.79980,0
18.00011,18.00011,18.00011,0.00307,0.00307,0.00307,0.96199,11789.25586,11346.78418,0
18.10011,18.10011,18.10011,0.00306,0.00306,0.00306,0.96199,11789.25586,11346.79980,0
18.20011,18.20011,18.20011,0.00304,0.00304,0.00304,0.96199,11789.25586,11346.81250,0
18.30012,18.30012,18.30012,0.00307,0.00307,0.00307,0.96199,11789.25586,11346.79688,0
18.40011,18.40011,18.40011,0.00293,0.00293,0.00293,0.96200,11789.25586,11346.90234,0
18.50011,18.50011,18.50011,0.00296,0.00296,0.00296,0.96200,11789.25586,11346.88574,0
18.60011,18.60011,18.60011,0.00295,0.00295,0.00295,0.96200,11789.25586,11346.89844,0
18.70011,18.70011,18.70011,0.00293,0.00293,0.00293,0.96200,11789.25586,11346.91211,0
18.80011,18.80011,18.80011,0.00296,0.00296,0.00296,0.96200,11789.25586,11346.89551,0
18.90010,18.90010,18.90010,0.00283,0.00283,0.00283,0.96201,11789.25586,11346.99707,0
19.00010,19.00010,19.00010,0.00285,0.00285,0.00285,0.96200,11789.25586,11346.97949,0
19.10010,19.10010,19.10010,0.00284,0.00284,0.00284,0.96200,11789.25586,11346.99219,0
19.20010,19.20010,19.20010,0.00283,0.00283,0.00283,0.96201,11789.25586,11347.00586,0
19.30010,19.30010,19.30010,0.00285,0.00285,0.00285,0.96200,11789.25586,11346.98730,0
19.40010,19.40010,19.40010,0.00271,0.00271,0.00271,0.96201,11789.25586,11347.10059,0
19.50010,19.50010,19.50010,0.00280,0.00280,0.00280,0.96201,11789.25586,11347.04688,0
19.60010,19.60010,19.60010,0.00272,0.00272,0.00272,0.96201,11789.25586,11347.09277,0
19.70010,19.70010,19.70010,0.00273,0.00273,0.00273,0.96201,11789.25586,11347.09570,0
19.80010,19.80010,19.80010,0.00275,0.00275,0.00275,0.96201,11789.25586,11347.07812,0
19.90009,19.90009,19.90009,0.00261,0.00261,0.00261,0.96202,11789.25586,11347.18848,0
20.00010,20.00010,20.00010,0.00270,0.00270,0.00270,0.96202,11789.25586,11347.13379,0
20.10010,20.10010,20.10010,0.00263,0.00263,0.00263,0.96202,11789.25586,11347.17578,0
20.20010,20.20010,20.20010,0.00263,0.00263,0.00263,0.96202,11789.25586,11347.18066,0
20.30010,20.30010,20.30010,0.00264,0.00264,0.00264,0.96202,11789.25586,11347.17285,0
20.40009,20.40009,20.40009,0.00256,0.00256,0.00256,0.96203,11789.25586,11347.24316,0
20.50010,20.50010,20.50010,0.00259,0.00259,0.00259,0.96202,11789.25586,11347.22559,0
20.60009,20.60009,20.60009,0.00253,0.00253,0.00253,0.96203,11789.25586,11347.26074,0
20.70009,20.70009,20.70009,0.00254,0.00254,0.00254,0.96203,11789.25586,11347.26367,0
20.80009,20.80009,20.80009,0.00257,0.00257,0.00257,0.96203,11789.25586,11347.24316,0
20.90009,20.90009,20.90009,0.00243,0.00243,0.00243,0.96203,11789.25586,11347.34277,0
21.00009,21.00009,21.00009,0.00252,0.00252,0.00252,0.96203,11789.25586,11347.30078,0
21.10009,21.10009,21.10009,0.00245,0.00245,0.00245,0.96203,11789.25586,11347.33496,0
21.20009,21.20009,21.20009,0.00245,0.00245,0.00245,0.96203,11789.25586,11347.33594,0
21.30009,21.30009,21.30009,0.00248,0.00248,0.00248,0.96203,11789.25586,11347.33008,0
21.40009,21.40009,21.40009,0.00235,0.00235,0.00235,0.96204,11789.25586,11347.42773,0
21.50009,21.50009,21.50009,0.00243,0.00243,0.00243,0.96204,11789.25586,11347.37109,0
21.60009,21.60009,21.60009,0.00237,0.00237,0.00237,0.96204,11789.25586,11347.41895,0
21.70009,21.70009,21.70009,0.00237,0.00237,0.00237,0.96204,11789.25586,11347.41797,0
21.80009,21.80009,21.80009,0.00240,0.00240,0.00240,0.96204,11789.25586,11347.39160,0
21.90009,21.90009,21.90009,0.00227,0.00227,0.00227,0.96205,11789.25586,11347.50293,0
22.00009,22.00009,22.00009,0.00235,0.00235,0.00235,0.96204,11789.25586,11347.44141,0
22.10009,22.10009,22.10009,0.00229,0.00229,0.00229,0.96205,11789.25586,11347.49316,0
22.20009,22.20009,22.20009,0.00229,0.00229,0.00229,0.96205,11789.25586,11347.49121,0
22.30009,22.30009,22.30009,0.00232,0.00232,0.00232,0.96205,11789.25586,11347.47363,0
22.40009,22.40009,22.40009,0.00220,0.00220,0.00220,0.96205,11789.25586,11347.55469,0
22.50009,22.50009,22.50009,0.00223,0.00223,0.00223,0.96205,11789.25586,11347.53516,0
22.60009,22.60009,22.60009,0.00223,0.00223,0.00223,0.96205,11789.25586,11347.54297,0
22.70009,22.70009,22.70009,0.00222,0.00222,0.00222,0.96205,11789.25586,11347.55078,0
22.80009,22.80009,22.80009,0.00225,0.00225,0.00225,0.96205,11789.25586,11347.53125,0
22.90008,22.90008,22.90008,0.00213,0.00213,0.00213,0.96206,11789.25586,11347.62109,0
23.00008,23.00008,23.00008,0.00216,0.00216,0.00216,0.96206,11789.25586,11347.60254,0
23.10008,23.10008,23.10008,0.00215,0.00215,0.00215,0.96206,11789.25586,11347.60938,0
23.20008,23.20008,23.20008,0.00214,0.00214,0.00214,0.96206,11789.25586,11347.61719,0
23.30009,23.30009,23.30009,0.00217,0.00217,0.00217,0.96206,11789.25586,11347.59766,0
23.40008,23.40008,23.40008,0.00206,0.00206,0.00206,0.96206,11789.25586,11347.68652,0
23.50008,23.50008,23.50008,0.00209,0.00209,0.00209,0.96206,11789.25586,11347.66895,0
23.60008,23.60008,23.60008,0.00208,0.00208,0.00208,0.96206,11789.25586,11347.67578,0
23.70008,23.70008,23.70008,0.00207,0.00207,0.00207,0.96206,11789.25586,11347.68164,0
